timestamp,sample
306341,-172
306349,-181
306357,-184
306365,-179
306373,-173
306381,-167
306389,-163
306397,-167
306405,-169
306413,-169
306421,-166
306429,-164
306437,-157
306445,-147
306453,-137
306461,-126
306469,-118
306477,-115
306485,-116
306493,-126
306501,-129
306509,-123
306517,-113
306525,-110
306533,-112
306541,-113
306549,-108
306557,-97
306565,-94
306573,-101
306581,-123
306589,-141
306597,-137
306605,-128
306613,-118
306621,-107
306629,-94
306637,-86
306645,-89
306653,-96
306661,-95
306669,-84
306677,-76
306685,-74
306693,-78
306701,-83
306709,-91
306717,-94
306725,-98
306733,-105
306741,-111
306749,-115
306757,-108
306765,-87
306773,-56
306781,-31
306789,-21
306797,-32
306805,-43
306813,-48
306821,-59
306829,-62
306837,-31
306845,-34
306853,-140
306861,-127
306869,265
306877,793
306885,867
306893,333
306901,-300
306909,-479
306917,-273
306925,-111
306933,-125
306941,-147
306949,-123
306957,-107
306965,-108
306973,-110
306981,-113
306989,-112
306997,-105
307005,-94
307013,-90
307021,-89
307029,-91
307037,-90
307045,-88
307053,-83
307061,-76
307069,-65
307077,-57
307085,-58
307093,-58
307101,-48
307109,-29
307117,-11
307125,-2
307133,5
307141,13
307149,19
307157,23
307165,25
307173,23
307181,17
307189,6
307197,-9
307205,-23
307213,-46
307221,-74
307229,-93
307237,-104
307245,-111
307253,-118
307261,-121
307269,-120
307277,-123
307285,-125
307293,-127
307301,-128
307309,-128
307317,-124
307325,-117
307333,-104
307341,-92
307349,-87
307357,-85
307365,-92
307373,-98
307381,-106
307389,-109
307397,-104
307405,-100
307413,-97
307421,-100
307429,-99
307437,-92
307445,-85
307453,-84
307461,-86
307469,-86
307477,-80
307485,-78
307493,-82
307501,-87
307509,-87
307517,-84
307525,-81
307533,-76
307541,-76
307549,-72
307557,-71
307565,-73
307573,-78
307581,-84
307589,-81
307597,-71
307605,-63
307613,-59
307621,-57
307629,-57
307637,-57
307645,-59
307653,-60
307661,-61
307669,-59
307677,-44
307685,-21
307693,2
307701,14
307709,13
307717,-3
307725,-24
307733,-50
307741,-59
307749,-26
307757,-27
307765,-137
307773,-125
307781,247
307789,724
307797,762
307805,239
307813,-341
307821,-478
307829,-260
307837,-95
307845,-96
307853,-112
307861,-93
307869,-88
307877,-87
307885,-82
307893,-73
307901,-68
307909,-63
307917,-61
307925,-54
307933,-46
307941,-41
307949,-37
307957,-37
307965,-38
307973,-37
307981,-34
307989,-28
307997,-28
308005,-28
308013,-20
308021,-4
308029,13
308037,28
308045,38
308053,44
308061,47
308069,48
308077,43
308085,30
308093,18
308101,3
308109,-11
308117,-31
308125,-49
308133,-70
308141,-93
308149,-109
308157,-122
308165,-124
308173,-125
308181,-132
308189,-139
308197,-139
308205,-126
308213,-109
308221,-107
308229,-110
308237,-115
308245,-111
308253,-105
308261,-104
308269,-113
308277,-116
308285,-113
308293,-99
308301,-86
308309,-76
308317,-79
308325,-89
308333,-96
308341,-97
308349,-94
308357,-91
308365,-89
308373,-88
308381,-84
308389,-79
308397,-76
308405,-73
308413,-72
308421,-75
308429,-71
308437,-71
308445,-74
308453,-84
308461,-89
308469,-96
308477,-98
308485,-96
308493,-94
308501,-92
308509,-88
308517,-81
308525,-72
308533,-66
308541,-69
308549,-77
308557,-82
308565,-80
308573,-69
308581,-54
308589,-37
308597,-22
308605,-1
308613,5
308621,-1
308629,-18
308637,-32
308645,-39
308653,-9
308661,9
308669,-78
308677,-143
308685,105
308693,590
308701,801
308709,420
308717,-209
308725,-504
308733,-345
308741,-121
308749,-76
308757,-112
308765,-108
308773,-98
308781,-96
308789,-99
308797,-100
308805,-93
308813,-78
308821,-70
308829,-69
308837,-78
308845,-87
308853,-88
308861,-83
308869,-75
308877,-70
308885,-62
308893,-52
308901,-38
308909,-27
308917,-12
308925,-1
308933,8
308941,19
308949,35
308957,48
308965,60
308973,66
308981,71
308989,66
308997,55
309005,36
309013,11
309021,-26
309029,-73
309037,-112
309045,-134
309053,-140
309061,-147
309069,-155
309077,-150
309085,-140
309093,-134
309101,-135
309109,-140
309117,-135
309125,-132
309133,-122
309141,-106
309149,-93
309157,-86
309165,-95
309173,-100
309181,-97
309189,-95
309197,-98
309205,-104
309213,-107
309221,-110
309229,-115
309237,-120
309245,-127
309253,-131
309261,-142
309269,-152
309277,-157
309285,-151
309293,-139
309301,-130
309309,-124
309317,-122
309325,-126
309333,-130
309341,-130
309349,-129
309357,-121
309365,-120
309373,-120
309381,-116
309389,-115
309397,-118
309405,-121
309413,-122
309421,-125
309429,-131
309437,-131
309445,-123
309453,-119
309461,-122
309469,-112
309477,-88
309485,-57
309493,-48
309501,-62
309509,-84
309517,-95
309525,-96
309533,-77
309541,-35
309549,-73
309557,-173
309565,-58
309573,389
309581,765
309589,579
309597,-78
309605,-576
309613,-548
309621,-244
309629,-81
309637,-83
309645,-81
309653,-50
309661,-39
309669,-41
309677,-34
309685,-25
309693,-18
309701,-25
309709,-22
309717,-6
309725,13
309733,22
309741,29
309749,42
309757,56
309765,63
309773,65
309781,69
309789,75
309797,89
309805,100
309813,113
309821,123
309829,130
309837,135
309845,144
309853,154
309861,153
309869,138
309877,120
309885,99
309893,72
309901,42
309909,11
309917,-24
309925,-57
309933,-86
309941,-103
309949,-115
309957,-119
309965,-116
309973,-119
309981,-113
309989,-108
309997,-100
310005,-86
310013,-73
310021,-69
310029,-74
310037,-74
310045,-74
310053,-71
310061,-76
310069,-82
310077,-83
310085,-73
310093,-65
310101,-63
310109,-60
310117,-53
310125,-52
310133,-51
310141,-52
310149,-49
310157,-47
310165,-48
310173,-55
310181,-64
310189,-70
310197,-74
310205,-76
310213,-83
310221,-84
310229,-84
310237,-89
310245,-93
310253,-91
310261,-86
310269,-86
310277,-91
310285,-89
310293,-82
310301,-82
310309,-91
310317,-96
310325,-100
310333,-87
310341,-71
310349,-46
310357,-25
310365,-26
310373,-43
310381,-60
310389,-76
310397,-70
310405,-24
310413,-50
310421,-160
310429,-66
310437,392
310445,805
310453,621
310461,-89
310469,-651
310477,-632
310485,-304
310493,-122
310501,-134
310509,-145
310517,-122
310525,-102
310533,-85
310541,-69
310549,-64
310557,-70
310565,-80
310573,-78
310581,-69
310589,-55
310597,-51
310605,-52
310613,-50
310621,-46
310629,-41
310637,-39
310645,-32
310653,-22
310661,-12
310669,-3
310677,14
310685,35
310693,56
310701,68
310709,69
310717,66
310725,62
310733,55
310741,46
310749,26
310757,2
310765,-31
310773,-66
310781,-105
310789,-137
310797,-160
310805,-171
310813,-186
310821,-196
310829,-205
310837,-201
310845,-199
310853,-198
310861,-195
310869,-190
310877,-177
310885,-167
310893,-160
310901,-159
310909,-161
310917,-163
310925,-158
310933,-156
310941,-158
310949,-170
310957,-175
310965,-167
310973,-154
310981,-152
310989,-157
310997,-154
311005,-141
311013,-129
311021,-127
311029,-126
311037,-126
311045,-125
311053,-126
311061,-122
311069,-117
311077,-110
311085,-109
311093,-112
311101,-119
311109,-128
311117,-135
311125,-128
311133,-111
311141,-96
311149,-91
311157,-99
311165,-115
311173,-130
311181,-140
311189,-131
311197,-107
311205,-69
311213,-48
311221,-39
311229,-46
311237,-55
311245,-65
311253,-78
311261,-79
311269,-48
311277,-100
311285,-218
311293,-100
311301,387
311309,809
311317,641
311325,-20
311333,-531
311341,-522
311349,-255
311357,-134
311365,-155
311373,-154
311381,-124
311389,-116
311397,-116
311405,-119
311413,-113
311421,-105
311429,-96
311437,-95
311445,-95
311453,-95
311461,-96
311469,-92
311477,-85
311485,-79
311493,-68
311501,-58
311509,-48
311517,-34
311525,-25
311533,-12
311541,5
311549,27
311557,49
311565,65
311573,77
311581,89
311589,93
311597,89
311605,74
311613,56
311621,32
311629,4
311637,-29
311645,-67
311653,-93
311661,-111
311669,-118
311677,-122
311685,-126
311693,-131
311701,-140
311709,-155
311717,-163
311725,-158
311733,-151
311741,-142
311749,-129
311757,-120
311765,-114
311773,-117
311781,-119
311789,-116
311797,-108
311805,-104
311813,-99
311821,-93
311829,-92
311837,-94
311845,-91
311853,-81
311861,-70
311869,-70
311877,-71
311885,-68
311893,-59
311901,-50
311909,-49
311917,-53
311925,-56
311933,-54
311941,-49
311949,-50
311957,-57
311965,-64
311973,-66
311981,-60
311989,-59
311997,-61
312005,-60
312013,-60
312021,-66
312029,-71
312037,-70
312045,-62
312053,-43
312061,-23
312069,-4
312077,4
312085,-7
312093,-25
312101,-46
312109,-61
312117,-44
312125,-16
312133,-92
312141,-174
312149,47
312157,567
312165,874
312173,565
312181,-94
312189,-473
312197,-368
312205,-128
312213,-61
312221,-91
312229,-87
312237,-72
312245,-67
312253,-60
312261,-49
312269,-39
312277,-35
312285,-33
312293,-36
312301,-35
312309,-31
312317,-27
312325,-26
312333,-28
312341,-28
312349,-24
312357,-11
312365,6
312373,16
312381,25
312389,37
312397,54
312405,75
312413,91
312421,107
312429,112
312437,110
312445,104
312453,95
312461,84
312469,67
312477,45
312485,14
312493,-18
312501,-51
312509,-82
312517,-104
312525,-116
312533,-125
312541,-131
312549,-132
312557,-127
312565,-121
312573,-114
312581,-110
312589,-97
312597,-85
312605,-81
312613,-86
312621,-89
312629,-83
312637,-75
312645,-71
312653,-71
312661,-68
312669,-64
312677,-61
312685,-63
312693,-69
312701,-75
312709,-79
312717,-81
312725,-72
312733,-70
312741,-68
312749,-74
312757,-77
312765,-78
312773,-76
312781,-71
312789,-65
312797,-61
312805,-60
312813,-60
312821,-53
312829,-52
312837,-52
312845,-59
312853,-61
312861,-55
312869,-45
312877,-43
312885,-49
312893,-64
312901,-70
312909,-65
312917,-43
312925,-13
312933,13
312941,18
312949,8
312957,-14
312965,-31
312973,-52
312981,-47
312989,-5
312997,-16
313005,-130
313013,-105
313021,288
313029,762
313037,762
313045,207
313053,-364
313061,-469
313069,-235
313077,-71
313085,-81
313093,-104
313101,-94
313109,-84
313117,-84
313125,-87
313133,-90
313141,-90
313149,-90
313157,-87
313165,-79
313173,-66
313181,-62
313189,-67
313197,-70
313205,-66
313213,-62
313221,-68
313229,-79
313237,-86
313245,-76
313253,-53
313261,-33
313269,-25
313277,-26
313285,-25
313293,-14
313301,1
313309,3
313317,-3
313325,-19
313333,-37
313341,-56
313349,-85
313357,-125
313365,-171
313373,-217
313381,-248
313389,-268
313397,-273
313405,-280
313413,-288
313421,-286
313429,-272
313437,-249
313445,-238
313453,-241
313461,-249
313469,-245
313477,-231
313485,-212
313493,-189
313501,-171
313509,-167
313517,-165
313525,-161
313533,-156
313541,-157
313549,-159
313557,-152
313565,-143
313573,-144
313581,-146
313589,-144
313597,-132
313605,-117
313613,-109
313621,-111
313629,-110
313637,-99
313645,-94
313653,-96
313661,-103
313669,-106
313677,-94
313685,-73
313693,-69
313701,-67
313709,-61
313717,-50
313725,-54
313733,-58
313741,-46
313749,-5
313757,32
313765,42
313773,20
313781,-6
313789,-20
313797,-31
313805,-24
313813,23
313821,5
313829,-115
313837,-35
313845,420
313853,846
313861,678
313869,-42
313877,-629
313885,-624
313893,-276
313901,-68
313909,-61
313917,-82
313925,-77
313933,-73
313941,-58
313949,-42
313957,-42
313965,-47
313973,-36
313981,-25
313989,-22
313997,-20
314005,-7
314013,9
314021,17
314029,15
314037,17
314045,43
314053,72
314061,86
314069,89
314077,101
314085,127
314093,167
314101,189
314109,190
314117,187
314125,190
314133,195
314141,189
314149,174
314157,143
314165,101
314173,52
314181,9
314189,-25
314197,-51
314205,-76
314213,-101
314221,-122
314229,-131
314237,-133
314245,-119
314253,-113
314261,-116
314269,-125
314277,-125
314285,-110
314293,-95
314301,-91
314309,-87
314317,-76
314325,-64
314333,-67
314341,-83
314349,-91
314357,-86
314365,-79
314373,-71
314381,-60
314389,-50
314397,-60
314405,-81
314413,-82
314421,-50
314429,-36
314437,-52
314445,-71
314453,-72
314461,-70
314469,-79
314477,-88
314485,-74
314493,-57
314501,-58
314509,-79
314517,-88
314525,-82
314533,-69
314541,-71
314549,-77
314557,-65
314565,-27
314573,12
314581,19
314589,-5
314597,-24
314605,-25
314613,-33
314621,-23
314629,5
314637,-72
314645,-144
314653,128
314661,699
314669,959
314677,489
314685,-318
314693,-693
314701,-466
314709,-145
314717,-77
314725,-117
314733,-100
314741,-70
314749,-72
314757,-73
314765,-67
314773,-60
314781,-65
314789,-76
314797,-69
314805,-67
314813,-64
314821,-55
314829,-44
314837,-43
314845,-42
314853,-36
314861,-22
314869,-7
314877,6
314885,15
314893,30
314901,60
314909,92
314917,105
314925,113
314933,121
314941,135
314949,126
314957,92
314965,66
314973,48
314981,7
314989,-55
314997,-115
315005,-156
315013,-188
315021,-209
315029,-224
315037,-236
315045,-248
315053,-260
315061,-251
315069,-240
315077,-234
315085,-232
315093,-231
315101,-227
315109,-217
315117,-207
315125,-196
315133,-198
315141,-210
315149,-215
315157,-206
315165,-188
315173,-178
315181,-187
315189,-207
315197,-212
315205,-202
315213,-195
315221,-202
315229,-205
315237,-202
315245,-190
315253,-187
315261,-190
315269,-188
315277,-192
315285,-197
315293,-186
315301,-174
315309,-167
315317,-168
315325,-173
315333,-177
315341,-188
315349,-191
315357,-168
315365,-131
315373,-115
315381,-117
315389,-129
315397,-147
315405,-160
315413,-173
315421,-157
315429,-117
315437,-190
315445,-296
315453,-74
315461,506
315469,863
315477,500
315485,-285
315493,-748
315501,-601
315509,-277
315517,-187
315525,-238
315533,-237
315541,-192
315549,-169
315557,-163
315565,-166
315573,-161
315581,-159
315589,-161
315597,-156
315605,-141
315613,-125
315621,-120
315629,-119
315637,-115
315645,-112
315653,-108
315661,-101
315669,-96
315677,-78
315685,-58
315693,-38
315701,-23
315709,2
315717,25
315725,46
315733,52
315741,53
315749,43
315757,35
315765,19
315773,-6
315781,-42
315789,-91
315797,-137
315805,-159
315813,-178
315821,-199
315829,-216
315837,-218
315845,-208
315853,-202
315861,-206
315869,-214
315877,-214
315885,-208
315893,-198
315901,-194
315909,-190
315917,-180
315925,-163
315933,-150
315941,-140
315949,-142
315957,-148
315965,-155
315973,-153
315981,-140
315989,-122
315997,-115
316005,-120
316013,-121
316021,-118
316029,-114
316037,-108
316045,-102
316053,-93
316061,-90
316069,-90
316077,-87
316085,-84
316093,-76
316101,-73
316109,-73
316117,-76
316125,-76
316133,-71
316141,-71
316149,-80
316157,-85
316165,-73
316173,-48
316181,-21
316189,-2
316197,5
316205,-5
316213,-23
316221,-43
316229,-56
316237,-35
316245,14
316253,-47
316261,-162
316269,12
316277,569
316285,987
316293,730
316301,-8
316309,-513
316317,-448
316325,-168
316333,-80
316341,-121
316349,-115
316357,-83
316365,-68
316373,-65
316381,-64
316389,-61
316397,-53
316405,-47
316413,-43
316421,-44
316429,-45
316437,-37
316445,-26
316453,-15
316461,-8
316469,-4
316477,-8
316485,-7
316493,5
316501,28
316509,51
316517,68
316525,80
316533,97
316541,119
316549,141
316557,152
316565,157
316573,151
316581,144
316589,121
316597,82
316605,37
316613,3
316621,-20
316629,-43
316637,-61
316645,-75
316653,-82
316661,-90
316669,-103
316677,-110
316685,-112
316693,-115
316701,-113
316709,-108
316717,-98
316725,-93
316733,-93
316741,-92
316749,-89
316757,-83
316765,-74
316773,-66
316781,-63
316789,-68
316797,-79
316805,-81
316813,-75
316821,-71
316829,-70
316837,-72
316845,-73
316853,-69
316861,-63
316869,-64
316877,-65
316885,-65
316893,-58
316901,-50
316909,-48
316917,-53
316925,-55
316933,-53
316941,-55
316949,-58
316957,-59
316965,-62
316973,-62
316981,-66
316989,-68
316997,-74
317005,-67
317013,-49
317021,-18
317029,11
317037,26
317045,22
317053,8
317061,-13
317069,-28
317077,-36
317085,-20
317093,19
317101,-27
317109,-152
317117,-18
317125,490
317133,929
317141,761
317149,105
317157,-401
317165,-394
317173,-157
317181,-64
317189,-103
317197,-101
317205,-75
317213,-68
317221,-65
317229,-56
317237,-48
317245,-41
317253,-42
317261,-43
317269,-39
317277,-26
317285,-8
317293,6
317301,14
317309,19
317317,25
317325,27
317333,32
317341,42
317349,48
317357,59
317365,77
317373,98
317381,112
317389,123
317397,135
317405,135
317413,127
317421,113
317429,103
317437,89
317445,61
317453,23
317461,-12
317469,-33
317477,-51
317485,-67
317493,-80
317501,-91
317509,-96
317517,-100
317525,-105
317533,-109
317541,-106
317549,-99
317557,-98
317565,-98
317573,-95
317581,-84
317589,-73
317597,-63
317605,-56
317613,-58
317621,-73
317629,-86
317637,-81
317645,-66
317653,-54
317661,-49
317669,-42
317677,-33
317685,-27
317693,-27
317701,-32
317709,-46
317717,-53
317725,-51
317733,-44
317741,-36
317749,-39
317757,-42
317765,-45
317773,-50
317781,-45
317789,-37
317797,-33
317805,-32
317813,-34
317821,-30
317829,-20
317837,-19
317845,-30
317853,-38
317861,-41
317869,-38
317877,-27
317885,-8
317893,10
317901,27
317909,31
317917,18
317925,1
317933,-14
317941,-32
317949,-18
317957,8
317965,-63
317973,-139
317981,85
317989,602
317997,897
318005,570
318013,-99
318021,-470
318029,-351
318037,-111
318045,-59
318053,-99
318061,-99
318069,-81
318077,-72
318085,-67
318093,-60
318101,-63
318109,-69
318117,-70
318125,-67
318133,-61
318141,-57
318149,-58
318157,-58
318165,-53
318173,-47
318181,-42
318189,-36
318197,-27
318205,-17
318213,-4
318221,14
318229,34
318237,52
318245,59
318253,64
318261,74
318269,89
318277,90
318285,79
318293,62
318301,42
318309,20
318317,-10
318325,-46
318333,-79
318341,-108
318349,-126
318357,-131
318365,-129
318373,-128
318381,-133
318389,-135
318397,-138
318405,-139
318413,-137
318421,-131
318429,-125
318437,-124
318445,-126
318453,-120
318461,-109
318469,-100
318477,-98
318485,-104
318493,-114
318501,-123
318509,-120
318517,-117
318525,-110
318533,-104
318541,-101
318549,-98
318557,-101
318565,-105
318573,-108
318581,-106
318589,-99
318597,-93
318605,-92
318613,-98
318621,-101
318629,-95
318637,-88
318645,-82
318653,-76
318661,-70
318669,-63
318677,-60
318685,-65
318693,-72
318701,-77
318709,-78
318717,-75
318725,-76
318733,-80
318741,-96
318749,-105
318757,-110
318765,-98
318773,-78
318781,-61
318789,-43
318797,-35
318805,-44
318813,-66
318821,-92
318829,-119
318837,-129
318845,-94
318853,-96
318861,-200
318869,-191
318877,179
318885,665
318893,707
318901,174
318909,-419
318917,-554
318925,-324
318933,-152
318941,-172
318949,-210
318957,-192
318965,-177
318973,-173
318981,-176
318989,-176
318997,-170
319005,-160
319013,-153
319021,-150
319029,-150
319037,-145
319045,-139
319053,-130
319061,-127
319069,-134
319077,-136
319085,-133
319093,-122
319101,-107
319109,-90
319117,-71
319125,-48
319133,-37
319141,-27
319149,-15
319157,-5
319165,7
319173,19
319181,24
319189,14
319197,-11
319205,-42
319213,-80
319221,-122
319229,-159
319237,-190
319245,-209
319253,-222
319261,-225
319269,-222
319277,-219
319285,-213
319293,-205
319301,-202
319309,-200
319317,-188
319325,-176
319333,-174
319341,-182
319349,-188
319357,-187
319365,-183
319373,-180
319381,-172
319389,-162
319397,-153
319405,-144
319413,-136
319421,-133
319429,-135
319437,-134
319445,-134
319453,-131
319461,-135
319469,-140
319477,-142
319485,-135
319493,-129
319501,-130
319509,-133
319517,-129
319525,-120
319533,-110
319541,-97
319549,-80
319557,-76
319565,-84
319573,-87
319581,-84
319589,-77
319597,-80
319605,-82
319613,-77
319621,-71
319629,-71
319637,-80
319645,-75
319653,-49
319661,-14
319669,3
319677,-3
319685,-31
319693,-57
319701,-71
319709,-72
319717,-49
319725,-7
319733,-60
319741,-153
319749,24
319757,519
319765,828
319773,499
319781,-237
319789,-684
319797,-546
319805,-194
319813,-38
319821,-55
319829,-63
319837,-48
319845,-29
319853,-13
319861,-5
319869,-6
319877,-6
319885,-7
319893,-2
319901,4
319909,8
319917,12
319925,14
319933,14
319941,16
319949,23
319957,36
319965,40
319973,47
319981,57
319989,81
319997,103
320005,120
320013,129
320021,139
320029,152
320037,167
320045,169
320053,165
320061,156
320069,138
320077,109
320085,63
320093,8
320101,-38
320109,-78
320117,-113
320125,-135
320133,-143
320141,-144
320149,-144
320157,-147
320165,-152
320173,-157
320181,-153
320189,-145
320197,-138
320205,-138
320213,-135
320221,-131
320229,-126
320237,-125
320245,-128
320253,-129
320261,-128
320269,-124
320277,-120
320285,-117
320293,-112
320301,-108
320309,-110
320317,-111
320325,-106
320333,-98
320341,-93
320349,-95
320357,-106
320365,-113
320373,-114
320381,-105
320389,-96
320397,-93
320405,-95
320413,-98
320421,-100
320429,-103
320437,-101
320445,-96
320453,-98
320461,-106
320469,-116
320477,-124
320485,-120
320493,-112
320501,-105
320509,-103
320517,-97
320525,-97
320533,-94
320541,-85
320549,-66
320557,-40
320565,-20
320573,-13
320581,-15
320589,-25
320597,-44
320605,-66
320613,-79
320621,-52
320629,-52
320637,-163
320645,-185
320653,170
320661,694
320669,792
320677,246
320685,-428
320693,-631
320701,-381
320709,-142
320717,-107
320725,-127
320733,-109
320741,-98
320749,-99
320757,-91
320765,-78
320773,-74
320781,-74
320789,-75
320797,-77
320805,-70
320813,-62
320821,-56
320829,-58
320837,-57
320845,-50
320853,-39
320861,-31
320869,-28
320877,-27
320885,-21
320893,-11
320901,7
320909,27
320917,43
320925,53
320933,63
320941,73
320949,79
320957,76
320965,63
320973,36
320981,2
320989,-32
320997,-55
321005,-72
321013,-86
321021,-103
321029,-120
321037,-129
321045,-130
321053,-124
321061,-124
321069,-126
321077,-127
321085,-125
321093,-113
321101,-114
321109,-118
321117,-120
321125,-120
321133,-123
321141,-126
321149,-132
321157,-131
321165,-130
321173,-130
321181,-133
321189,-136
321197,-137
321205,-131
321213,-125
321221,-118
321229,-114
321237,-111
321245,-110
321253,-116
321261,-120
321269,-123
321277,-123
321285,-123
321293,-126
321301,-119
321309,-101
321317,-85
321325,-79
321333,-86
321341,-93
321349,-91
321357,-90
321365,-93
321373,-96
321381,-97
321389,-97
321397,-95
321405,-102
321413,-111
321421,-122
321429,-117
321437,-96
321445,-65
321453,-39
321461,-30
321469,-28
321477,-33
321485,-45
321493,-64
321501,-84
321509,-64
321517,-36
321525,-104
321533,-184
321541,37
321549,548
321557,839
321565,514
321573,-142
321581,-512
321589,-394
321597,-153
321605,-89
321613,-121
321621,-105
321629,-74
321637,-61
321645,-54
321653,-48
321661,-40
321669,-41
321677,-42
321685,-45
321693,-44
321701,-40
321709,-33
321717,-27
321725,-22
321733,-23
321741,-18
321749,-7
321757,10
321765,22
321773,33
321781,49
321789,63
321797,83
321805,108
321813,125
321821,130
321829,130
321837,128
321845,131
321853,125
321861,97
321869,54
321877,13
321885,-25
321893,-46
321901,-65
321909,-80
321917,-98
321925,-111
321933,-124
321941,-125
321949,-124
321957,-122
321965,-122
321973,-122
321981,-118
321989,-116
321997,-115
322005,-116
322013,-113
322021,-109
322029,-107
322037,-104
322045,-97
322053,-92
322061,-90
322069,-94
322077,-92
322085,-86
322093,-80
322101,-81
322109,-83
322117,-81
322125,-76
322133,-71
322141,-66
322149,-65
322157,-63
322165,-61
322173,-56
322181,-53
322189,-49
322197,-42
322205,-35
322213,-36
322221,-47
322229,-56
322237,-54
322245,-45
322253,-40
322261,-46
322269,-54
322277,-59
322285,-63
322293,-69
322301,-72
322309,-77
322317,-83
322325,-87
322333,-77
322341,-58
322349,-39
322357,-29
322365,-34
322373,-44
322381,-50
322389,-65
322397,-59
322405,-23
322413,-44
322421,-146
322429,-65
322437,363
322445,786
322453,686
322461,87
322469,-430
322477,-462
322485,-218
322493,-93
322501,-121
322509,-133
322517,-107
322525,-97
322533,-92
322541,-85
322549,-77
322557,-75
322565,-76
322573,-79
322581,-75
322589,-73
322597,-73
322605,-69
322613,-59
322621,-51
322629,-48
322637,-46
322645,-36
322653,-27
322661,-17
322669,-17
322677,-10
322685,7
322693,28
322701,45
322709,52
322717,52
322725,47
322733,36
322741,23
322749,1
322757,-34
322765,-72
322773,-113
322781,-148
322789,-182
322797,-214
322805,-243
322813,-260
322821,-276
322829,-286
322837,-294
322845,-294
322853,-294
322861,-298
322869,-309
322877,-317
322885,-315
322893,-313
322901,-314
322909,-317
322917,-321
322925,-324
322933,-326
322941,-328
322949,-322
322957,-322
322965,-321
322973,-330
322981,-339
322989,-349
322997,-352
323005,-350
323013,-359
323021,-374
323029,-375
323037,-367
323045,-360
323053,-369
323061,-382
323069,-386
323077,-377
323085,-370
323093,-369
323101,-373
323109,-376
323117,-381
323125,-385
323133,-389
323141,-390
323149,-397
323157,-406
323165,-404
323173,-397
323181,-396
323189,-406
323197,-407
323205,-389
323213,-366
323221,-345
323229,-341
323237,-350
323245,-372
323253,-391
323261,-408
323269,-416
323277,-392
323285,-377
323293,-473
323301,-510
323309,-196
323317,316
323325,441
323333,-93
323341,-806
323349,-1047
323357,-784
323365,-489
323373,-425
323381,-454
323389,-441
323397,-422
323405,-408
323413,-394
323421,-387
323429,-391
323437,-398
323445,-394
323453,-385
323461,-367
323469,-355
323477,-340
323485,-324
323493,-302
323501,-284
323509,-272
323517,-266
323525,-257
323533,-242
323541,-221
323549,-204
323557,-182
323565,-159
323573,-133
323581,-110
323589,-98
323597,-88
323605,-85
323613,-84
323621,-97
323629,-123
323637,-161
323645,-211
323653,-263
323661,-304
323669,-321
323677,-328
323685,-329
323693,-327
323701,-324
323709,-320
323717,-321
323725,-326
323733,-322
323741,-314
323749,-296
323757,-275
323765,-253
323773,-240
323781,-232
323789,-229
323797,-223
323805,-225
323813,-227
323821,-228
323829,-216
323837,-199
323845,-184
323853,-178
323861,-171
323869,-161
323877,-149
323885,-141
323893,-136
323901,-131
323909,-121
323917,-116
323925,-108
323933,-103
323941,-98
323949,-94
323957,-88
323965,-74
323973,-58
323981,-53
323989,-52
323997,-54
324005,-49
324013,-44
324021,-36
324029,-34
324037,-31
324045,-21
324053,-3
324061,15
324069,24
324077,25
324085,27
324093,31
324101,44
324109,65
324117,96
324125,127
324133,142
324141,142
324149,134
324157,125
324165,115
324173,102
324181,121
324189,136
324197,45
324205,-5
324213,280
324221,811
324229,1019
324237,589
324245,-86
324253,-375
324261,-190
324269,48
324277,87
324285,61
324293,84
324301,122
324309,139
324317,147
324325,156
324333,168
324341,170
324349,173
324357,174
324365,182
324373,193
324381,204
324389,220
324397,235
324405,246
324413,245
324421,250
324429,267
324437,279
324445,296
324453,313
324461,334
324469,352
324477,368
324485,373
324493,376
324501,380
324509,383
324517,374
324525,357
324533,339
324541,315
324549,278
324557,237
324565,204
324573,180
324581,162
324589,146
324597,136
324605,132
324613,127
324621,122
324629,114
324637,116
324645,123
324653,131
324661,134
324669,135
324677,133
324685,135
324693,136
324701,142
324709,153
324717,161
324725,160
324733,158
324741,159
324749,163
324757,165
324765,166
324773,159
324781,148
324789,145
324797,147
324805,157
324813,160
324821,158
324829,160
324837,163
324845,170
324853,174
324861,173
324869,174
324877,174
324885,177
324893,184
324901,193
324909,200
324917,195
324925,184
324933,171
324941,172
324949,178
324957,175
324965,168
324973,160
324981,171
324989,191
324997,220
325005,240
325013,243
325021,231
325029,218
325037,204
325045,188
325053,183
325061,215
325069,199
325077,86
325085,110
325093,501
325101,972
325109,976
325117,426
325125,-148
325133,-258
325141,-25
325149,137
325157,122
325165,97
325173,118
325181,133
325189,133
325197,135
325205,136
325213,134
325221,133
325229,136
325237,145
325245,153
325253,160
325261,164
325269,163
325277,157
325285,150
325293,152
325301,163
325309,177
325317,188
325325,198
325333,211
325341,229
325349,249
325357,269
325365,280
325373,288
325381,299
325389,301
325397,294
325405,271
325413,234
325421,190
325429,149
325437,117
325445,92
325453,71
325461,51
325469,29
325477,17
325485,21
325493,33
325501,32
325509,25
325517,21
325525,34
325533,50
325541,62
325549,68
325557,75
325565,82
325573,89
325581,91
325589,91
325597,83
325605,71
325613,68
325621,67
325629,63
325637,62
325645,61
325653,57
325661,50
325669,43
325677,37
325685,35
325693,36
325701,35
325709,32
325717,27
325725,18
325733,12
325741,11
325749,11
325757,9
325765,5
325773,-6
325781,-14
325789,-25
325797,-31
325805,-28
325813,-22
325821,-17
325829,-19
325837,-32
325845,-45
325853,-53
325861,-47
325869,-26
325877,2
325885,25
325893,31
325901,28
325909,28
325917,25
325925,3
325933,-24
325941,-5
325949,20
325957,-62
325965,-118
325973,149
325981,646
325989,831
325997,411
326005,-234
326013,-502
326021,-323
326029,-105
326037,-80
326045,-114
326053,-94
326061,-69
326069,-63
326077,-65
326085,-71
326093,-70
326101,-64
326109,-55
326117,-51
326125,-54
326133,-61
326141,-68
326149,-66
326157,-57
326165,-54
326173,-53
326181,-49
326189,-44
326197,-34
326205,-22
326213,-1
326221,24
326229,47
326237,67
326245,77
326253,84
326261,89
326269,93
326277,91
326285,76
326293,47
326301,13
326309,-30
326317,-77
326325,-109
326333,-128
326341,-138
326349,-156
326357,-174
326365,-181
326373,-174
326381,-173
326389,-179
326397,-183
326405,-178
326413,-173
326421,-174
326429,-176
326437,-178
326445,-179
326453,-175
326461,-164
326469,-154
326477,-145
326485,-137
326493,-132
326501,-127
326509,-127
326517,-135
326525,-137
326533,-134
326541,-131
326549,-128
326557,-132
326565,-137
326573,-140
326581,-136
326589,-133
326597,-131
326605,-127
326613,-134
326621,-145
326629,-155
326637,-158
326645,-158
326653,-157
326661,-163
326669,-165
326677,-155
326685,-143
326693,-137
326701,-145
326709,-156
326717,-169
326725,-178
326733,-187
326741,-191
326749,-188
326757,-171
326765,-150
326773,-131
326781,-116
326789,-110
326797,-114
326805,-128
326813,-152
326821,-155
326829,-114
326837,-117
326845,-220
326853,-186
326861,211
326869,675
326877,657
326885,88
326893,-484
326901,-579
326909,-334
326917,-168
326925,-177
326933,-189
326941,-167
326949,-153
326957,-157
326965,-151
326973,-139
326981,-122
326989,-114
326997,-112
327005,-117
327013,-117
327021,-116
327029,-113
327037,-109
327045,-111
327053,-106
327061,-91
327069,-70
327077,-52
327085,-36
327093,-28
327101,-11
327109,9
327117,30
327125,49
327133,62
327141,69
327149,75
327157,79
327165,77
327173,58
327181,20
327189,-34
327197,-86
327205,-125
327213,-157
327221,-178
327229,-185
327237,-185
327245,-183
327253,-176
327261,-169
327269,-162
327277,-168
327285,-176
327293,-173
327301,-167
327309,-163
327317,-167
327325,-164
327333,-159
327341,-159
327349,-163
327357,-163
327365,-161
327373,-158
327381,-154
327389,-146
327397,-141
327405,-143
327413,-143
327421,-137
327429,-123
327437,-111
327445,-103
327453,-99
327461,-100
327469,-109
327477,-114
327485,-119
327493,-119
327501,-118
327509,-114
327517,-108
327525,-107
327533,-109
327541,-110
327549,-108
327557,-103
327565,-103
327573,-105
327581,-110
327589,-109
327597,-113
327605,-117
327613,-123
327621,-123
327629,-116
327637,-101
327645,-80
327653,-59
327661,-47
327669,-40
327677,-43
327685,-51
327693,-60
327701,-82
327709,-82
327717,-45
327725,-64
327733,-166
327741,-93
327749,327
327757,762
327765,685
327773,90
327781,-450
327789,-508
327797,-260
327805,-111
327813,-128
327821,-145
327829,-124
327837,-115
327845,-114
327853,-109
327861,-102
327869,-99
327877,-95
327885,-90
327893,-80
327901,-78
327909,-79
327917,-82
327925,-79
327933,-77
327941,-70
327949,-60
327957,-40
327965,-33
327973,-28
327981,-23
327989,-7
327997,16
328005,35
328013,45
328021,54
328029,63
328037,71
328045,66
328053,51
328061,25
328069,-13
328077,-61
328085,-111
328093,-151
328101,-182
328109,-205
328117,-224
328125,-244
328133,-255
328141,-267
328149,-277
328157,-285
328165,-284
328173,-279
328181,-272
328189,-272
328197,-274
328205,-280
328213,-278
328221,-271
328229,-256
328237,-251
328245,-271
328253,-306
328261,-330
328269,-333
328277,-325
328285,-325
328293,-331
328301,-324
328309,-305
328317,-294
328325,-299
328333,-311
328341,-305
328349,-287
328357,-266
328365,-254
328373,-246
328381,-242
328389,-243
328397,-240
328405,-234
328413,-226
328421,-224
328429,-221
328437,-210
328445,-207
328453,-208
328461,-212
328469,-204
328477,-193
328485,-192
328493,-204
328501,-211
328509,-207
328517,-194
328525,-173
328533,-153
328541,-135
328549,-126
328557,-113
328565,-106
328573,-106
328581,-125
328589,-150
328597,-137
328605,-103
328613,-168
328621,-262
328629,-63
328637,453
328645,753
328653,403
328661,-326
328669,-731
328677,-574
328685,-251
328693,-136
328701,-160
328709,-151
328717,-127
328725,-120
328733,-123
328741,-118
328749,-113
328757,-118
328765,-129
328773,-123
328781,-106
328789,-88
328797,-82
328805,-82
328813,-79
328821,-70
328829,-58
328837,-57
328845,-47
328853,-28
328861,-4
328869,9
328877,26
328885,47
328893,75
328901,100
328909,119
328917,134
328925,144
328933,147
328941,134
328949,101
328957,54
328965,3
328973,-40
328981,-85
328989,-122
328997,-149
329005,-162
329013,-173
329021,-172
329029,-173
329037,-173
329045,-179
329053,-182
329061,-178
329069,-166
329077,-166
329085,-181
329093,-189
329101,-181
329109,-166
329117,-156
329125,-165
329133,-172
329141,-165
329149,-157
329157,-153
329165,-155
329173,-159
329181,-156
329189,-142
329197,-132
329205,-136
329213,-142
329221,-140
329229,-133
329237,-122
329245,-119
329253,-119
329261,-122
329269,-130
329277,-131
329285,-116
329293,-101
329301,-94
329309,-99
329317,-105
329325,-112
329333,-116
329341,-116
329349,-122
329357,-123
329365,-102
329373,-72
329381,-49
329389,-49
329397,-56
329405,-58
329413,-57
329421,-70
329429,-76
329437,-36
329445,-40
329453,-156
329461,-103
329469,356
329477,868
329485,800
329493,90
329501,-595
329509,-677
329517,-336
329525,-106
329533,-113
329541,-141
329549,-116
329557,-90
329565,-72
329573,-67
329581,-69
329589,-75
329597,-70
329605,-47
329613,-27
329621,-31
329629,-48
329637,-46
329645,-27
329653,-3
329661,14
329669,16
329677,17
329685,26
329693,51
329701,75
329709,92
329717,114
329725,143
329733,175
329741,190
329749,193
329757,191
329765,179
329773,155
329781,118
329789,61
329797,-6
329805,-64
329813,-97
329821,-130
329829,-163
329837,-190
329845,-202
329853,-200
329861,-204
329869,-216
329877,-219
329885,-214
329893,-205
329901,-201
329909,-202
329917,-205
329925,-195
329933,-184
329941,-180
329949,-187
329957,-193
329965,-187
329973,-174
329981,-162
329989,-162
329997,-161
330005,-159
330013,-163
330021,-157
330029,-153
330037,-158
330045,-167
330053,-175
330061,-170
330069,-167
330077,-168
330085,-160
330093,-148
330101,-144
330109,-141
330117,-135
330125,-124
330133,-126
330141,-135
330149,-139
330157,-135
330165,-127
330173,-130
330181,-137
330189,-147
330197,-158
330205,-145
330213,-117
330221,-88
330229,-75
330237,-87
330245,-107
330253,-131
330261,-153
330269,-152
330277,-105
330285,-103
330293,-232
330301,-216
330309,231
330317,800
330325,826
330333,174
330341,-533
330349,-676
330357,-372
330365,-148
330373,-159
330381,-191
330389,-166
330397,-145
330405,-143
330413,-145
330421,-145
330429,-138
330437,-132
330445,-126
330453,-112
330461,-101
330469,-104
330477,-113
330485,-115
330493,-107
330501,-89
330509,-71
330517,-60
330525,-51
330533,-38
330541,-16
330549,4
330557,31
330565,59
330573,79
330581,83
330589,84
330597,92
330605,99
330613,95
330621,63
330629,14
330637,-33
330645,-76
330653,-114
330661,-152
330669,-186
330677,-212
330685,-225
330693,-231
330701,-227
330709,-228
330717,-234
330725,-241
330733,-243
330741,-237
330749,-222
330757,-208
330765,-199
330773,-198
330781,-188
330789,-173
330797,-161
330805,-146
330813,-133
330821,-127
330829,-125
330837,-124
330845,-119
330853,-116
330861,-117
330869,-119
330877,-122
330885,-123
330893,-127
330901,-124
330909,-114
330917,-99
330925,-92
330933,-90
330941,-89
330949,-81
330957,-75
330965,-71
330973,-71
330981,-66
330989,-56
330997,-47
331005,-44
331013,-41
331021,-35
331029,-27
331037,-25
331045,-25
331053,-26
331061,-24
331069,-31
331077,-32
331085,-17
331093,12
331101,35
331109,46
331117,39
331125,24
331133,9
331141,-6
331149,19
331157,63
331165,1
331173,-116
331181,64
331189,610
331197,1012
331205,755
331213,47
331221,-438
331229,-384
331237,-132
331245,-46
331253,-82
331261,-78
331269,-49
331277,-35
331285,-29
331293,-27
331301,-28
331309,-29
331317,-26
331325,-23
331333,-16
331341,-15
331349,-19
331357,-26
331365,-26
331373,-19
331381,-8
331389,2
331397,7
331405,10
331413,19
331421,28
331429,44
331437,62
331445,87
331453,110
331461,126
331469,137
331477,142
331485,143
331493,138
331501,119
331509,93
331517,59
331525,25
331533,-6
331541,-29
331549,-47
331557,-58
331565,-65
331573,-75
331581,-88
331589,-99
331597,-105
331605,-106
331613,-102
331621,-93
331629,-87
331637,-84
331645,-80
331653,-74
331661,-65
331669,-60
331677,-54
331685,-51
331693,-47
331701,-32
331709,-19
331717,-15
331725,-21
331733,-32
331741,-38
331749,-33
331757,-33
331765,-33
331773,-38
331781,-40
331789,-40
331797,-38
331805,-37
331813,-35
331821,-37
331829,-40
331837,-45
331845,-49
331853,-53
331861,-50
331869,-50
331877,-51
331885,-54
331893,-57
331901,-52
331909,-44
331917,-40
331925,-56
331933,-73
331941,-80
331949,-68
331957,-49
331965,-27
331973,-7
331981,11
331989,6
331997,-13
332005,-28
332013,-35
332021,-42
332029,-27
332037,4
332045,-52
332053,-136
332061,66
332069,596
332077,955
332085,685
332093,11
332101,-416
332109,-344
332117,-111
332125,-43
332133,-76
332141,-79
332149,-69
332157,-80
332165,-77
332173,-67
332181,-65
332189,-73
332197,-81
332205,-78
332213,-65
332221,-59
332229,-58
332237,-64
332245,-62
332253,-55
332261,-44
332269,-33
332277,-30
332285,-27
332293,-25
332301,-16
332309,-6
332317,8
332325,20
332333,31
332341,41
332349,49
332357,47
332365,45
332373,30
332381,-2
332389,-36
332397,-62
332405,-84
332413,-107
332421,-133
332429,-154
332437,-166
332445,-166
332453,-171
332461,-176
332469,-182
332477,-179
332485,-168
332493,-162
332501,-155
332509,-148
332517,-141
332525,-131
332533,-122
332541,-108
332549,-99
332557,-93
332565,-86
332573,-74
332581,-73
332589,-82
332597,-91
332605,-88
332613,-80
332621,-74
332629,-70
332637,-65
332645,-64
332653,-69
332661,-74
332669,-74
332677,-76
332685,-74
332693,-76
332701,-77
332709,-78
332717,-82
332725,-83
332733,-87
332741,-86
332749,-90
332757,-90
332765,-83
332773,-76
332781,-73
332789,-72
332797,-73
332805,-76
332813,-80
332821,-81
332829,-83
332837,-84
332845,-83
332853,-82
332861,-77
332869,-67
332877,-51
332885,-33
332893,-19
332901,-16
332909,-22
332917,-47
332925,-69
332933,-89
332941,-78
332949,-36
332957,-66
332965,-171
332973,-55
332981,406
332989,811
332997,660
333005,34
333013,-460
333021,-461
333029,-212
333037,-98
333045,-128
333053,-136
333061,-110
333069,-99
333077,-91
333085,-85
333093,-88
333101,-96
333109,-97
333117,-94
333125,-92
333133,-91
333141,-86
333149,-76
333157,-67
333165,-66
333173,-66
333181,-56
333189,-45
333197,-34
333205,-27
333213,-14
333221,-1
333229,12
333237,18
333245,23
333253,33
333261,62
333269,89
333277,95
333285,80
333293,59
333301,36
333309,7
333317,-32
333325,-64
333333,-88
333341,-105
333349,-118
333357,-131
333365,-137
333373,-141
333381,-139
333389,-141
333397,-142
333405,-142
333413,-143
333421,-136
333429,-121
333437,-113
333445,-110
333453,-102
333461,-92
333469,-90
333477,-88
333485,-84
333493,-83
333501,-81
333509,-83
333517,-84
333525,-80
333533,-74
333541,-76
333549,-83
333557,-92
333565,-92
333573,-89
333581,-87
333589,-83
333597,-82
333605,-77
333613,-73
333621,-68
333629,-56
333637,-41
333645,-33
333653,-39
333661,-54
333669,-69
333677,-71
333685,-63
333693,-58
333701,-63
333709,-67
333717,-63
333725,-56
333733,-54
333741,-58
333749,-56
333757,-54
333765,-51
333773,-55
333781,-61
333789,-64
333797,-62
333805,-49
333813,-30
333821,-17
333829,-13
333837,-20
333845,-35
333853,-53
333861,-74
333869,-87
333877,-66
333885,-48
333893,-132
333901,-186
333909,85
333917,582
333925,771
333933,348
333941,-303
333949,-583
333957,-401
333965,-170
333973,-135
333981,-168
333989,-154
333997,-145
334005,-155
334013,-161
334021,-159
334029,-152
334037,-145
334045,-142
334053,-141
334061,-143
334069,-144
334077,-137
334085,-131
334093,-129
334101,-129
334109,-120
334117,-100
334125,-82
334133,-72
334141,-65
334149,-47
334157,-23
334165,-1
334173,14
334181,24
334189,32
334197,42
334205,38
334213,26
334221,3
334229,-18
334237,-37
334245,-64
334253,-96
334261,-122
334269,-142
334277,-161
334285,-184
334293,-207
334301,-217
334309,-211
334317,-197
334325,-196
334333,-205
334341,-212
334349,-202
334357,-189
334365,-180
334373,-182
334381,-185
334389,-176
334397,-161
334405,-151
334413,-146
334421,-144
334429,-140
334437,-132
334445,-129
334453,-135
334461,-135
334469,-133
334477,-132
334485,-131
334493,-129
334501,-129
334509,-137
334517,-145
334525,-140
334533,-121
334541,-109
334549,-121
334557,-137
334565,-136
334573,-127
334581,-124
334589,-131
334597,-135
334605,-124
334613,-105
334621,-91
334629,-103
334637,-114
334645,-118
334653,-110
334661,-104
334669,-102
334677,-101
334685,-103
334693,-114
334701,-128
334709,-123
334717,-94
334725,-59
334733,-44
334741,-47
334749,-61
334757,-77
334765,-86
334773,-96
334781,-71
334789,-39
334797,-114
334805,-183
334813,65
334821,574
334829,789
334837,338
334845,-401
334853,-732
334861,-502
334869,-163
334877,-58
334885,-74
334893,-67
334901,-49
334909,-41
334917,-34
334925,-27
334933,-25
334941,-26
334949,-19
334957,-9
334965,-6
334973,-5
334981,-2
334989,8
334997,19
335005,33
335013,44
335021,53
335029,58
335037,61
335045,68
335053,85
335061,113
335069,139
335077,150
335085,152
335093,153
335101,160
335109,161
335117,153
335125,137
335133,115
335141,78
335149,30
335157,-22
335165,-66
335173,-102
335181,-127
335189,-144
335197,-151
335205,-153
335213,-158
335221,-158
335229,-165
335237,-166
335245,-169
335253,-172
335261,-169
335269,-161
335277,-157
335285,-156
335293,-159
335301,-156
335309,-146
335317,-136
335325,-133
335333,-135
335341,-137
335349,-133
335357,-126
335365,-125
335373,-130
335381,-139
335389,-142
335397,-141
335405,-139
335413,-139
335421,-141
335429,-140
335437,-141
335445,-138
335453,-132
335461,-129
335469,-127
335477,-124
335485,-130
335493,-135
335501,-132
335509,-120
335517,-105
335525,-91
335533,-90
335541,-88
335549,-82
335557,-78
335565,-84
335573,-91
335581,-90
335589,-84
335597,-81
335605,-79
335613,-81
335621,-86
335629,-91
335637,-87
335645,-69
335653,-42
335661,-18
335669,0
335677,3
335685,-9
335693,-31
335701,-56
335709,-75
335717,-52
335725,-16
335733,-88
335741,-166
335749,65
335757,593
335765,875
335773,506
335781,-206
335789,-582
335797,-429
335805,-145
335813,-61
335821,-86
335829,-78
335837,-55
335845,-50
335853,-49
335861,-46
335869,-36
335877,-32
335885,-32
335893,-36
335901,-38
335909,-38
335917,-37
335925,-37
335933,-34
335941,-33
335949,-32
335957,-32
335965,-24
335973,-13
335981,-7
335989,4
335997,16
336005,34
336013,48
336021,54
336029,65
336037,83
336045,97
336053,99
336061,82
336069,51
336077,15
336085,-17
336093,-40
336101,-64
336109,-95
336117,-122
336125,-137
336133,-139
336141,-144
336149,-150
336157,-152
336165,-148
336173,-139
336181,-140
336189,-144
336197,-139
336205,-121
336213,-102
336221,-86
336229,-75
336237,-74
336245,-80
336253,-86
336261,-83
336269,-70
336277,-61
336285,-62
336293,-69
336301,-71
336309,-74
336317,-71
336325,-60
336333,-45
336341,-47
336349,-54
336357,-57
336365,-46
336373,-39
336381,-43
336389,-50
336397,-54
336405,-55
336413,-57
336421,-62
336429,-57
336437,-52
336445,-47
336453,-43
336461,-38
336469,-31
336477,-23
336485,-22
336493,-30
336501,-35
336509,-27
336517,-17
336525,-10
336533,-14
336541,-23
336549,-33
336557,-42
336565,-37
336573,-23
336581,-2
336589,10
336597,13
336605,10
336613,0
336621,-13
336629,-28
336637,-27
336645,15
336653,8
336661,-97
336669,-56
336677,352
336685,831
336693,817
336701,240
336709,-336
336717,-435
336725,-198
336733,-52
336741,-69
336749,-85
336757,-58
336765,-44
336773,-45
336781,-43
336789,-37
336797,-32
336805,-31
336813,-29
336821,-27
336829,-22
336837,-28
336845,-29
336853,-35
336861,-36
336869,-34
336877,-31
336885,-25
336893,-8
336901,10
336909,22
336917,30
336925,48
336933,68
336941,89
336949,101
336957,112
336965,115
336973,110
336981,96
336989,77
336997,60
337005,35
337013,-4
337021,-46
337029,-77
337037,-91
337045,-99
337053,-110
337061,-117
337069,-126
337077,-132
337085,-136
337093,-125
337101,-112
337109,-107
337117,-110
337125,-119
337133,-122
337141,-111
337149,-106
337157,-103
337165,-105
337173,-99
337181,-86
337189,-75
337197,-83
337205,-96
337213,-100
337221,-98
337229,-98
337237,-97
337245,-101
337253,-103
337261,-107
337269,-109
337277,-102
337285,-87
337293,-80
337301,-80
337309,-84
337317,-84
337325,-81
337333,-79
337341,-80
337349,-80
337357,-77
337365,-75
337373,-75
337381,-70
337389,-69
337397,-71
337405,-73
337413,-68
337421,-60
337429,-54
337437,-56
337445,-58
337453,-60
337461,-70
337469,-86
337477,-98
337485,-103
337493,-93
337501,-75
337509,-51
337517,-29
337525,-18
337533,-18
337541,-31
337549,-46
337557,-64
337565,-68
337573,-32
337581,-39
337589,-146
337597,-134
337605,243
337613,725
337621,765
337629,234
337637,-351
337645,-488
337653,-261
337661,-87
337669,-87
337677,-111
337685,-94
337693,-84
337701,-85
337709,-83
337717,-81
337725,-79
337733,-72
337741,-68
337749,-65
337757,-62
337765,-55
337773,-45
337781,-44
337789,-44
337797,-39
337805,-27
337813,-18
337821,-10
337829,-2
337837,10
337845,25
337853,41
337861,50
337869,65
337877,87
337885,105
337893,110
337901,102
337909,88
337917,75
337925,53
337933,16
337941,-22
337949,-48
337957,-65
337965,-91
337973,-117
337981,-133
337989,-130
337997,-124
338005,-129
338013,-142
338021,-150
338029,-146
338037,-139
338045,-128
338053,-120
338061,-112
338069,-108
338077,-103
338085,-104
338093,-103
338101,-100
338109,-97
338117,-96
338125,-98
338133,-101
338141,-102
338149,-103
338157,-103
338165,-100
338173,-97
338181,-92
338189,-88
338197,-81
338205,-77
338213,-72
338221,-71
338229,-71
338237,-76
338245,-75
338253,-78
338261,-79
338269,-80
338277,-79
338285,-77
338293,-69
338301,-63
338309,-64
338317,-69
338325,-75
338333,-82
338341,-86
338349,-90
338357,-98
338365,-98
338373,-87
338381,-65
338389,-43
338397,-27
338405,-26
338413,-38
338421,-56
338429,-77
338437,-94
338445,-82
338453,-43
338461,-96
338469,-194
338477,-55
338485,414
338493,763
338501,540
338509,-94
338517,-521
338525,-466
338533,-220
338541,-126
338549,-152
338557,-149
338565,-133
338573,-134
338581,-129
338589,-119
338597,-107
338605,-103
338613,-101
338621,-99
338629,-92
338637,-84
338645,-83
338653,-86
338661,-85
338669,-87
338677,-83
338685,-81
338693,-75
338701,-72
338709,-65
338717,-52
338725,-35
338733,-18
338741,1
338749,21
338757,34
338765,38
338773,36
338781,36
338789,31
338797,9
338805,-29
338813,-70
338821,-116
338829,-152
338837,-174
338845,-187
338853,-202
338861,-219
338869,-235
338877,-238
338885,-236
338893,-239
338901,-242
338909,-236
338917,-225
338925,-228
338933,-235
338941,-243
338949,-242
338957,-239
338965,-233
338973,-228
338981,-219
338989,-210
338997,-199
339005,-191
339013,-182
339021,-179
339029,-180
339037,-180
339045,-180
339053,-178
339061,-179
339069,-181
339077,-183
339085,-177
339093,-171
339101,-169
339109,-168
339117,-162
339125,-149
339133,-140
339141,-131
339149,-130
339157,-130
339165,-130
339173,-129
339181,-126
339189,-124
339197,-122
339205,-119
339213,-119
339221,-122
339229,-117
339237,-109
339245,-110
339253,-118
339261,-128
339269,-121
339277,-101
339285,-77
339293,-57
339301,-46
339309,-43
339317,-51
339325,-65
339333,-76
339341,-90
339349,-82
339357,-44
339365,-88
339373,-190
339381,-76
339389,377
339397,761
339405,601
339413,-4
339421,-461
339429,-432
339437,-175
339445,-63
339453,-86
339461,-93
339469,-69
339477,-63
339485,-60
339493,-59
339501,-50
339509,-46
339517,-43
339525,-46
339533,-35
339541,-22
339549,-15
339557,-12
339565,-12
339573,-4
339581,9
339589,18
339597,20
339605,25
339613,40
339621,60
339629,78
339637,93
339645,103
339653,118
339661,134
339669,147
339677,150
339685,142
339693,129
339701,106
339709,73
339717,41
339725,5
339733,-28
339741,-57
339749,-79
339757,-94
339765,-104
339773,-109
339781,-113
339789,-118
339797,-118
339805,-116
339813,-109
339821,-105
339829,-98
339837,-92
339845,-84
339853,-85
339861,-87
339869,-82
339877,-69
339885,-58
339893,-60
339901,-67
339909,-70
339917,-70
339925,-64
339933,-59
339941,-54
339949,-59
339957,-57
339965,-53
339973,-52
339981,-51
339989,-50
339997,-50
340005,-46
340013,-45
340021,-47
340029,-48
340037,-50
340045,-47
340053,-43
340061,-45
340069,-45
340077,-39
340085,-34
340093,-32
340101,-38
340109,-50
340117,-55
340125,-52
340133,-42
340141,-41
340149,-45
340157,-51
340165,-55
340173,-55
340181,-57
340189,-54
340197,-39
340205,-13
340213,7
340221,14
340229,12
340237,1
340245,-18
340253,-40
340261,-59
340269,-44
340277,-20
340285,-90
340293,-180
340301,9
340309,484
340317,769
340325,454
340333,-198
340341,-576
340349,-464
340357,-214
340365,-137
340373,-168
340381,-169
340389,-153
340397,-154
340405,-158
340413,-159
340421,-164
340429,-169
340437,-164
340445,-158
340453,-159
340461,-163
340469,-167
340477,-162
340485,-151
340493,-144
340501,-146
340509,-149
340517,-146
340525,-137
340533,-120
340541,-105
340549,-86
340557,-68
340565,-47
340573,-32
340581,-22
340589,-20
340597,-21
340605,-24
340613,-27
340621,-47
340629,-79
340637,-118
340645,-155
340653,-181
340661,-204
340669,-228
340677,-241
340685,-252
340693,-256
340701,-253
340709,-244
340717,-235
340725,-229
340733,-226
340741,-224
340749,-223
340757,-224
340765,-216
340773,-203
340781,-191
340789,-189
340797,-182
340805,-173
340813,-170
340821,-177
340829,-188
340837,-192
340845,-188
340853,-184
340861,-183
340869,-183
340877,-176
340885,-169
340893,-167
340901,-165
340909,-164
340917,-157
340925,-155
340933,-153
340941,-149
340949,-141
340957,-130
340965,-120
340973,-118
340981,-115
340989,-112
340997,-105
341005,-103
341013,-106
341021,-110
341029,-103
341037,-94
341045,-92
341053,-99
341061,-107
341069,-104
341077,-100
341085,-100
341093,-93
341101,-69
341109,-40
341117,-30
341125,-48
341133,-80
341141,-102
341149,-116
341157,-110
341165,-70
341173,-70
341181,-175
341189,-135
341197,255
341205,697
341213,627
341221,-26
341229,-655
341237,-724
341245,-383
341253,-126
341261,-100
341269,-125
341277,-116
341285,-103
341293,-95
341301,-83
341309,-66
341317,-52
341325,-51
341333,-50
341341,-42
341349,-35
341357,-30
341365,-29
341373,-31
341381,-24
341389,-11
341397,2
341405,8
341413,16
341421,28
341429,52
341437,80
341445,105
341453,121
341461,137
341469,146
341477,153
341485,158
341493,159
341501,149
341509,129
341517,97
341525,58
341533,13
341541,-32
341549,-69
341557,-91
341565,-108
341573,-120
341581,-128
341589,-125
341597,-123
341605,-117
341613,-114
341621,-112
341629,-100
341637,-92
341645,-85
341653,-75
341661,-77
341669,-83
341677,-83
341685,-73
341693,-67
341701,-64
341709,-63
341717,-72
341725,-78
341733,-80
341741,-80
341749,-74
341757,-70
341765,-67
341773,-64
341781,-58
341789,-55
341797,-53
341805,-46
341813,-28
341821,-18
341829,-15
341837,-17
341845,-17
341853,-18
341861,-28
341869,-29
341877,-22
341885,-15
341893,-19
341901,-24
341909,-25
341917,-20
341925,-15
341933,-9
341941,-4
341949,2
341957,5
341965,6
341973,-2
341981,-15
341989,-25
341997,-17
342005,11
342013,47
342021,68
342029,68
342037,58
342045,50
342053,50
342061,42
342069,21
342077,9
342085,36
342093,18
342101,-91
342109,-38
342117,379
342125,835
342133,775
342141,158
342149,-419
342157,-490
342165,-216
342173,-33
342181,-34
342189,-42
342197,-15
342205,3
342213,10
342221,17
342229,20
342237,19
342245,16
342253,17
342261,15
342269,19
342277,22
342285,28
342293,40
342301,48
342309,57
342317,70
342325,93
342333,117
342341,126
342349,124
342357,124
342365,137
342373,159
342381,168
342389,174
342397,179
342405,187
342413,191
342421,186
342429,169
342437,133
342445,86
342453,46
342461,15
342469,-3
342477,-17
342485,-34
342493,-46
342501,-52
342509,-57
342517,-71
342525,-78
342533,-75
342541,-65
342549,-60
342557,-66
342565,-70
342573,-65
342581,-58
342589,-51
342597,-53
342605,-56
342613,-57
342621,-55
342629,-56
342637,-63
342645,-63
342653,-58
342661,-55
342669,-56
342677,-58
342685,-53
342693,-39
342701,-37
342709,-37
342717,-38
342725,-38
342733,-48
342741,-51
342749,-50
342757,-47
342765,-51
342773,-52
342781,-53
342789,-48
342797,-47
342805,-48
342813,-53
342821,-61
342829,-64
342837,-64
342845,-58
342853,-53
342861,-43
342869,-35
342877,-34
342885,-45
342893,-59
342901,-64
342909,-56
342917,-33
342925,-6
342933,12
342941,21
342949,25
342957,25
342965,13
342973,-1
342981,-25
342989,-18
342997,17
343005,-30
343013,-126
343021,15
343029,490
343037,854
343045,634
343053,-7
343061,-461
343069,-416
343077,-168
343085,-75
343093,-97
343101,-83
343109,-54
343117,-55
343125,-66
343133,-59
343141,-41
343149,-28
343157,-31
343165,-36
343173,-34
343181,-32
343189,-29
343197,-30
343205,-33
343213,-36
343221,-31
343229,-15
343237,-2
343245,10
343253,22
343261,38
343269,58
343277,75
343285,92
343293,107
343301,118
343309,131
343317,136
343325,132
343333,114
343341,86
343349,52
343357,16
343365,-20
343373,-55
343381,-84
343389,-106
343397,-127
343405,-139
343413,-145
343421,-150
343429,-156
343437,-156
343445,-148
343453,-145
343461,-150
343469,-152
343477,-142
343485,-126
343493,-122
343501,-127
343509,-131
343517,-126
343525,-116
343533,-110
343541,-110
343549,-108
343557,-108
343565,-110
343573,-112
343581,-114
343589,-117
343597,-121
343605,-117
343613,-105
343621,-94
343629,-86
343637,-84
343645,-79
343653,-81
343661,-78
343669,-82
343677,-77
343685,-74
343693,-74
343701,-78
343709,-77
343717,-75
343725,-75
343733,-70
343741,-65
343749,-62
343757,-61
343765,-59
343773,-53
343781,-50
343789,-52
343797,-56
343805,-58
343813,-60
343821,-66
343829,-74
343837,-81
343845,-83
343853,-73
343861,-55
343869,-37
343877,-32
343885,-38
343893,-48
343901,-64
343909,-77
343917,-91
343925,-81
343933,-41
343941,-65
343949,-159
343957,-70
343965,359
343973,763
343981,638
343989,35
343997,-465
344005,-479
344013,-229
344021,-105
344029,-130
344037,-143
344045,-121
344053,-107
344061,-101
344069,-96
344077,-91
344085,-91
344093,-89
344101,-88
344109,-72
344117,-52
344125,-38
344133,-28
344141,-21
344149,-11
344157,-6
344165,-9
344173,-16
344181,-15
344189,0
344197,26
344205,47
344213,66
344221,89
344229,114
344237,133
344245,145
344253,142
344261,133
344269,117
344277,88
344285,55
344293,17
344301,-23
344309,-51
344317,-79
344325,-100
344333,-116
344341,-135
344349,-146
344357,-151
344365,-147
344373,-144
344381,-142
344389,-142
344397,-145
344405,-147
344413,-146
344421,-142
344429,-133
344437,-129
344445,-131
344453,-130
344461,-121
344469,-111
344477,-104
344485,-102
344493,-105
344501,-105
344509,-103
344517,-100
344525,-100
344533,-96
344541,-95
344549,-96
344557,-105
344565,-114
344573,-116
344581,-113
344589,-106
344597,-103
344605,-98
344613,-100
344621,-101
344629,-104
344637,-97
344645,-93
344653,-90
344661,-102
344669,-106
344677,-103
344685,-92
344693,-86
344701,-83
344709,-81
344717,-87
344725,-99
344733,-104
344741,-107
344749,-110
344757,-122
344765,-132
344773,-138
344781,-132
344789,-127
344797,-127
344805,-138
344813,-144
344821,-141
344829,-128
344837,-107
344845,-87
344853,-82
344861,-85
344869,-102
344877,-120
344885,-144
344893,-165
344901,-144
344909,-120
344917,-198
344925,-260
344933,-13
344941,470
344949,669
344957,264
344965,-378
344973,-673
344981,-514
344989,-293
344997,-252
345005,-286
345013,-273
345021,-258
345029,-259
345037,-273
345045,-284
345053,-287
345061,-286
345069,-287
345077,-286
345085,-285
345093,-287
345101,-297
345109,-300
345117,-295
345125,-284
345133,-263
345141,-241
345149,-227
345157,-222
345165,-218
345173,-198
345181,-173
345189,-151
345197,-140
345205,-129
345213,-112
345221,-103
345229,-98
345237,-99
345245,-113
345253,-141
345261,-183
345269,-217
345277,-251
345285,-275
345293,-302
345301,-322
345309,-337
345317,-342
345325,-337
345333,-327
345341,-327
345349,-327
345357,-329
345365,-322
345373,-320
345381,-323
345389,-320
345397,-309
345405,-303
345413,-301
345421,-304
345429,-294
345437,-276
345445,-259
345453,-249
345461,-250
345469,-246
345477,-237
345485,-224
345493,-218
345501,-210
345509,-198
345517,-190
345525,-188
345533,-190
345541,-195
345549,-202
345557,-204
345565,-202
345573,-194
345581,-186
345589,-183
345597,-181
345605,-175
345613,-163
345621,-148
345629,-141
345637,-144
345645,-147
345653,-139
345661,-121
345669,-109
345677,-109
345685,-112
345693,-113
345701,-109
345709,-98
345717,-88
345725,-89
345733,-104
345741,-116
345749,-106
345757,-96
345765,-93
345773,-94
345781,-72
345789,-31
345797,-9
345805,-12
345813,-20
345821,-34
345829,-42
345837,-62
345845,-47
345853,-9
345861,-71
345869,-149
345877,81
345885,601
345893,872
345901,467
345909,-299
345917,-718
345925,-553
345933,-208
345941,-71
345949,-75
345957,-63
345965,-47
345973,-44
345981,-44
345989,-35
345997,-17
346005,-3
346013,0
346021,-1
346029,3
346037,17
346045,44
346053,75
346061,93
346069,98
346077,99
346085,101
346093,111
346101,125
346109,149
346117,180
346125,203
346133,212
346141,218
346149,241
346157,269
346165,276
346173,256
346181,225
346189,204
346197,176
346205,127
346213,58
346221,3
346229,-22
346237,-44
346245,-81
346253,-126
346261,-138
346269,-120
346277,-110
346285,-127
346293,-152
346301,-155
346309,-138
346317,-128
346325,-132
346333,-136
346341,-127
346349,-109
346357,-103
346365,-109
346373,-116
346381,-102
346389,-78
346397,-64
346405,-69
346413,-89
346421,-101
346429,-97
346437,-78
346445,-75
346453,-83
346461,-88
346469,-72
346477,-55
346485,-64
346493,-81
346501,-74
346509,-68
346517,-67
346525,-74
346533,-69
346541,-60
346549,-61
346557,-80
346565,-96
346573,-92
346581,-76
346589,-71
346597,-83
346605,-102
346613,-97
346621,-84
346629,-87
346637,-105
346645,-109
346653,-101
346661,-102
346669,-120
346677,-132
346685,-127
346693,-122
346701,-106
346709,-77
346717,-50
346725,-41
346733,-54
346741,-76
346749,-86
346757,-95
346765,-101
346773,-63
346781,-66
346789,-184
346797,-153
346805,302
346813,852
346821,830
346829,119
346837,-607
346845,-731
346853,-388
346861,-134
346869,-127
346877,-155
346885,-130
346893,-119
346901,-125
346909,-136
346917,-133
346925,-119
346933,-116
346941,-124
346949,-129
346957,-131
346965,-130
346973,-126
346981,-117
346989,-105
346997,-98
347005,-86
347013,-76
347021,-62
347029,-47
347037,-32
347045,-12
347053,15
347061,46
347069,74
347077,95
347085,106
347093,108
347101,107
347109,96
347117,65
347125,14
347133,-42
347141,-87
347149,-119
347157,-154
347165,-196
347173,-229
347181,-250
347189,-261
347197,-270
347205,-274
347213,-262
347221,-247
347229,-235
347237,-227
347245,-212
347253,-195
347261,-180
347269,-171
347277,-162
347285,-154
347293,-149
347301,-145
347309,-136
347317,-126
347325,-118
347333,-109
347341,-97
347349,-92
347357,-94
347365,-102
347373,-103
347381,-110
347389,-113
347397,-106
347405,-96
347413,-92
347421,-98
347429,-97
347437,-86
347445,-63
347453,-46
347461,-42
347469,-38
347477,-29
347485,-19
347493,-12
347501,-9
347509,-7
347517,-1
347525,5
347533,1
347541,-5
347549,-11
347557,-11
347565,-1
347573,11
347581,19
347589,17
347597,18
347605,19
347613,21
347621,16
347629,7
347637,0
347645,2
347653,11
347661,38
347669,68
347677,89
347685,87
347693,78
347701,67
347709,55
347717,38
347725,45
347733,84
347741,65
347749,-58
347757,-4
347765,468
347773,1026
347781,1061
347789,479
347797,-141
347805,-288
347813,-93
347821,36
347829,9
347837,-14
347845,1
347853,-4
347861,-10
347869,-5
347877,5
347885,16
347893,25
347901,30
347909,34
347917,37
347925,40
347933,38
347941,32
347949,27
347957,30
347965,38
347973,49
347981,53
347989,59
347997,72
348005,86
348013,90
348021,99
348029,114
348037,132
348045,151
348053,175
348061,187
348069,184
348077,158
348085,128
348093,97
348101,72
348109,38
348117,3
348125,-27
348133,-44
348141,-50
348149,-55
348157,-68
348165,-81
348173,-84
348181,-73
348189,-69
348197,-72
348205,-73
348213,-67
348221,-60
348229,-55
348237,-49
348245,-47
348253,-45
348261,-37
348269,-30
348277,-32
348285,-39
348293,-45
348301,-40
348309,-35
348317,-32
348325,-27
348333,-28
348341,-29
348349,-31
348357,-26
348365,-16
348373,-10
348381,-13
348389,-19
348397,-18
348405,-16
348413,-18
348421,-15
348429,-11
348437,-7
348445,1
348453,3
348461,3
348469,2
348477,-2
348485,-10
348493,-11
348501,-6
348509,0
348517,5
348525,10
348533,9
348541,5
348549,-2
348557,-1
348565,2
348573,4
348581,-2
348589,-1
348597,10
348605,29
348613,52
348621,77
348629,90
348637,92
348645,78
348653,57
348661,38
348669,23
348677,30
348685,71
348693,45
348701,-69
348709,-3
348717,439
348725,903
348733,844
348741,241
348749,-320
348757,-398
348765,-171
348773,-28
348781,-42
348789,-49
348797,-24
348805,-13
348813,-11
348821,-11
348829,-19
348837,-18
348845,-9
348853,-3
348861,1
348869,6
348877,10
348885,10
348893,8
348901,11
348909,14
348917,15
348925,17
348933,27
348941,38
348949,49
348957,63
348965,84
348973,103
348981,117
348989,124
348997,130
349005,136
349013,135
349021,124
349029,104
349037,79
349045,47
349053,9
349061,-26
349069,-50
349077,-72
349085,-87
349093,-98
349101,-115
349109,-122
349117,-130
349125,-127
349133,-123
349141,-120
349149,-121
349157,-113
349165,-106
349173,-102
349181,-99
349189,-93
349197,-84
349205,-74
349213,-63
349221,-49
349229,-39
349237,-39
349245,-50
349253,-58
349261,-61
349269,-61
349277,-64
349285,-66
349293,-68
349301,-66
349309,-65
349317,-59
349325,-56
349333,-58
349341,-68
349349,-75
349357,-83
349365,-82
349373,-81
349381,-91
349389,-102
349397,-107
349405,-97
349413,-88
349421,-89
349429,-93
349437,-97
349445,-99
349453,-100
349461,-100
349469,-98
349477,-98
349485,-100
349493,-99
349501,-97
349509,-99
349517,-106
349525,-102
349533,-91
349541,-82
349549,-86
349557,-99
349565,-112
349573,-114
349581,-109
349589,-88
349597,-67
349605,-52
349613,-49
349621,-52
349629,-68
349637,-87
349645,-112
349653,-105
349661,-71
349669,-105
349677,-204
349685,-77
349693,376
349701,761
349709,595
349717,-19
349725,-497
349733,-493
349741,-256
349749,-150
349757,-172
349765,-173
349773,-156
349781,-144
349789,-133
349797,-125
349805,-119
349813,-116
349821,-110
349829,-113
349837,-113
349845,-114
349853,-109
349861,-104
349869,-102
349877,-102
349885,-92
349893,-78
349901,-63
349909,-47
349917,-29
349925,-7
349933,14
349941,34
349949,53
349957,66
349965,67
349973,71
349981,74
349989,78
349997,69
350005,46
350013,18
350021,-14
350029,-54
350037,-96
350045,-132
350053,-151
350061,-159
350069,-161
350077,-161
350085,-163
350093,-159
350101,-150
350109,-139
350117,-141
350125,-144
350133,-145
350141,-134
350149,-118
350157,-108
350165,-111
350173,-114
350181,-116
350189,-117
350197,-117
350205,-109
350213,-101
350221,-100
350229,-103
350237,-95
350245,-90
350253,-83
350261,-88
350269,-88
350277,-84
350285,-78
350293,-85
350301,-92
350309,-95
350317,-90
350325,-89
350333,-97
350341,-108
350349,-106
350357,-100
350365,-99
350373,-103
350381,-106
350389,-95
350397,-81
350405,-87
350413,-103
350421,-120
350429,-123
350437,-124
350445,-125
350453,-124
350461,-124
350469,-118
350477,-121
350485,-130
350493,-144
350501,-161
350509,-169
350517,-170
350525,-170
350533,-173
350541,-167
350549,-158
350557,-151
350565,-145
350573,-135
350581,-127
350589,-138
350597,-162
350605,-192
350613,-216
350621,-233
350629,-215
350637,-205
350645,-299
350653,-345
350661,-57
350669,438
350677,588
350685,121
350693,-539
350701,-789
350709,-586
350717,-344
350725,-298
350733,-313
350741,-295
350749,-276
350757,-276
350765,-272
350773,-262
350781,-250
350789,-244
350797,-242
350805,-235
350813,-227
350821,-221
350829,-223
350837,-219
350845,-207
350853,-180
350861,-157
350869,-140
350877,-130
350885,-119
350893,-105
350901,-83
350909,-66
350917,-39
350925,-12
350933,13
350941,26
350949,38
350957,43
350965,42
350973,33
350981,5
350989,-35
350997,-76
351005,-119
351013,-163
351021,-201
351029,-225
351037,-240
351045,-253
351053,-262
351061,-263
351069,-260
351077,-255
351085,-254
351093,-246
351101,-233
351109,-216
351117,-206
351125,-199
351133,-193
351141,-179
351149,-173
351157,-172
351165,-173
351173,-166
351181,-162
351189,-166
351197,-169
351205,-162
351213,-159
351221,-161
351229,-159
351237,-149
351245,-148
351253,-153
351261,-165
351269,-167
351277,-163
351285,-154
351293,-148
351301,-140
351309,-134
351317,-126
351325,-120
351333,-113
351341,-118
351349,-129
351357,-127
351365,-114
351373,-105
351381,-110
351389,-113
351397,-105
351405,-95
351413,-97
351421,-103
351429,-96
351437,-80
351445,-80
351453,-89
351461,-98
351469,-96
351477,-83
351485,-62
351493,-32
351501,-13
351509,-10
351517,-25
351525,-50
351533,-66
351541,-72
351549,-68
351557,-31
351565,-42
351573,-138
351581,-65
351589,376
351597,847
351605,759
351613,72
351621,-574
351629,-650
351637,-309
351645,-64
351653,-41
351661,-53
351669,-33
351677,-17
351685,-10
351693,0
351701,4
351709,2
351717,-2
351725,-6
351733,-9
351741,-6
351749,1
351757,16
351765,31
351773,41
351781,47
351789,48
351797,47
351805,53
351813,64
351821,85
351829,109
351837,135
351845,158
351853,181
351861,192
351869,197
351877,196
351885,192
351893,177
351901,155
351909,113
351917,63
351925,9
351933,-47
351941,-96
351949,-134
351957,-156
351965,-162
351973,-165
351981,-166
351989,-170
351997,-167
352005,-163
352013,-156
352021,-150
352029,-148
352037,-144
352045,-136
352053,-129
352061,-124
352069,-118
352077,-116
352085,-122
352093,-121
352101,-119
352109,-114
352117,-116
352125,-124
352133,-124
352141,-119
352149,-111
352157,-104
352165,-103
352173,-101
352181,-102
352189,-106
352197,-110
352205,-111
352213,-105
352221,-96
352229,-88
352237,-91
352245,-97
352253,-86
352261,-72
352269,-66
352277,-75
352285,-84
352293,-79
352301,-65
352309,-58
352317,-54
352325,-49
352333,-41
352341,-37
352349,-34
352357,-30
352365,-29
352373,-25
352381,-22
352389,-16
352397,-7
352405,-3
352413,-4
352421,-18
352429,-26
352437,-20
352445,12
352453,45
352461,52
352469,44
352477,31
352485,21
352493,8
352501,-11
352509,-3
352517,40
352525,6
352533,-118
352541,-23
352549,459
352557,909
352565,771
352573,92
352581,-471
352589,-490
352597,-210
352605,-60
352613,-77
352621,-82
352629,-54
352637,-37
352645,-25
352653,-25
352661,-24
352669,-26
352677,-24
352685,-13
352693,-2
352701,8
352709,9
352717,9
352725,11
352733,18
352741,27
352749,32
352757,40
352765,49
352773,61
352781,80
352789,105
352797,130
352805,148
352813,154
352821,162
352829,176
352837,191
352845,185
352853,165
352861,142
352869,114
352877,79
352885,49
352893,16
352901,-11
352909,-30
352917,-51
352925,-65
352933,-73
352941,-79
352949,-84
352957,-86
352965,-86
352973,-82
352981,-78
352989,-73
352997,-69
353005,-68
353013,-70
353021,-73
353029,-73
353037,-69
353045,-63
353053,-67
353061,-70
353069,-71
353077,-64
353085,-54
353093,-42
353101,-39
353109,-44
353117,-46
353125,-39
353133,-33
353141,-38
353149,-51
353157,-59
353165,-56
353173,-51
353181,-54
353189,-53
353197,-52
353205,-50
353213,-50
353221,-48
353229,-40
353237,-30
353245,-22
353253,-22
353261,-28
353269,-34
353277,-36
353285,-36
353293,-32
353301,-27
353309,-24
353317,-25
353325,-25
353333,-20
353341,-9
353349,-8
353357,-16
353365,-29
353373,-35
353381,-27
353389,-8
353397,17
353405,34
353413,43
353421,35
353429,22
353437,6
353445,-12
353453,-23
353461,6
353469,21
353477,-73
353485,-140
353493,136
353501,673
353509,923
353517,534
353525,-134
353533,-461
353541,-323
353549,-121
353557,-103
353565,-142
353573,-120
353581,-98
353589,-95
353597,-102
353605,-96
353613,-84
353621,-66
353629,-62
353637,-57
353645,-49
353653,-41
353661,-32
353669,-29
353677,-32
353685,-32
353693,-27
353701,-24
353709,-9
353717,10
353725,29
353733,44
353741,63
353749,82
353757,103
353765,121
353773,140
353781,155
353789,163
353797,141
353805,111
353813,78
353821,46
353829,7
353837,-34
353845,-70
353853,-98
353861,-112
353869,-122
353877,-121
353885,-117
353893,-122
353901,-128
353909,-134
353917,-138
353925,-142
353933,-144
353941,-137
353949,-126
353957,-119
353965,-118
353973,-118
353981,-110
353989,-96
353997,-85
354005,-80
354013,-77
354021,-74
354029,-71
354037,-71
354045,-75
354053,-80
354061,-77
354069,-71
354077,-70
354085,-73
354093,-75
354101,-77
354109,-75
354117,-70
354125,-70
354133,-77
354141,-79
354149,-78
354157,-75
354165,-72
354173,-78
354181,-88
354189,-90
354197,-91
354205,-84
354213,-74
354221,-68
354229,-72
354237,-76
354245,-81
354253,-83
354261,-84
354269,-81
354277,-78
354285,-71
354293,-69
354301,-75
354309,-82
354317,-88
354325,-86
354333,-84
354341,-91
354349,-102
354357,-106
354365,-96
354373,-74
354381,-53
354389,-32
354397,-19
354405,-20
354413,-34
354421,-59
354429,-85
354437,-107
354445,-80
354453,-40
354461,-96
354469,-176
354477,32
354485,529
354493,829
354501,529
354509,-113
354517,-486
354525,-384
354533,-153
354541,-96
354549,-130
354557,-125
354565,-109
354573,-109
354581,-106
354589,-101
354597,-89
354605,-79
354613,-70
354621,-64
354629,-59
354637,-58
354645,-55
354653,-50
354661,-47
354669,-40
354677,-33
354685,-15
354693,6
354701,17
354709,25
354717,40
354725,55
354733,73
354741,89
354749,103
354757,115
354765,126
354773,132
354781,129
354789,119
354797,100
354805,77
354813,42
354821,-6
354829,-48
354837,-77
354845,-97
354853,-113
354861,-128
354869,-138
354877,-147
354885,-157
354893,-160
354901,-157
354909,-157
354917,-161
354925,-163
354933,-155
354941,-148
354949,-141
354957,-135
354965,-129
354973,-127
354981,-128
354989,-131
354997,-133
355005,-141
355013,-154
355021,-162
355029,-168
355037,-170
355045,-174
355053,-183
355061,-189
355069,-194
355077,-187
355085,-181
355093,-174
355101,-168
355109,-162
355117,-169
355125,-184
355133,-195
355141,-193
355149,-189
355157,-186
355165,-187
355173,-187
355181,-185
355189,-180
355197,-182
355205,-182
355213,-183
355221,-187
355229,-195
355237,-203
355245,-207
355253,-201
355261,-199
355269,-203
355277,-207
355285,-206
355293,-199
355301,-188
355309,-178
355317,-173
355325,-180
355333,-190
355341,-198
355349,-205
355357,-213
355365,-216
355373,-201
355381,-172
355389,-147
355397,-143
355405,-155
355413,-176
355421,-200
355429,-221
355437,-235
355445,-215
355453,-174
355461,-229
355469,-318
355477,-149
355485,336
355493,663
355501,382
355509,-300
355517,-736
355525,-648
355533,-368
355541,-254
355549,-267
355557,-254
355565,-223
355573,-211
355581,-210
355589,-208
355597,-199
355605,-190
355613,-178
355621,-173
355629,-172
355637,-173
355645,-166
355653,-160
355661,-163
355669,-159
355677,-147
355685,-129
355693,-106
355701,-87
355709,-74
355717,-63
355725,-38
355733,0
355741,34
355749,52
355757,60
355765,77
355773,96
355781,98
355789,89
355797,66
355805,28
355813,-17
355821,-65
355829,-105
355837,-140
355845,-176
355853,-203
355861,-211
355869,-207
355877,-212
355885,-215
355893,-211
355901,-198
355909,-191
355917,-187
355925,-181
355933,-171
355941,-166
355949,-169
355957,-169
355965,-163
355973,-154
355981,-157
355989,-160
355997,-154
356005,-139
356013,-125
356021,-121
356029,-123
356037,-123
356045,-121
356053,-121
356061,-119
356069,-118
356077,-116
356085,-116
356093,-118
356101,-121
356109,-122
356117,-122
356125,-117
356133,-111
356141,-109
356149,-107
356157,-105
356165,-103
356173,-103
356181,-104
356189,-99
356197,-92
356205,-86
356213,-84
356221,-88
356229,-92
356237,-88
356245,-86
356253,-88
356261,-99
356269,-110
356277,-113
356285,-106
356293,-99
356301,-93
356309,-85
356317,-82
356325,-83
356333,-77
356341,-60
356349,-37
356357,-25
356365,-25
356373,-27
356381,-26
356389,-21
356397,-26
356405,-40
356413,-58
356421,-51
356429,-5
356437,-27
356445,-131
356453,-32
356461,440
356469,862
356477,677
356485,-36
356493,-608
356501,-594
356509,-262
356517,-80
356525,-95
356533,-108
356541,-80
356549,-58
356557,-49
356565,-46
356573,-44
356581,-45
356589,-46
356597,-50
356605,-49
356613,-47
356621,-50
356629,-45
356637,-28
356645,-8
356653,3
356661,6
356669,15
356677,19
356685,27
356693,45
356701,73
356709,96
356717,116
356725,134
356733,150
356741,160
356749,169
356757,177
356765,171
356773,138
356781,85
356789,32
356797,-11
356805,-48
356813,-72
356821,-84
356829,-92
356837,-101
356845,-113
356853,-128
356861,-136
356869,-133
356877,-120
356885,-107
356893,-99
356901,-94
356909,-84
356917,-74
356925,-69
356933,-65
356941,-61
356949,-53
356957,-52
356965,-42
356973,-25
356981,-13
356989,-14
356997,-23
357005,-29
357013,-24
357021,-14
357029,-7
357037,-4
357045,1
357053,4
357061,10
357069,14
357077,18
357085,14
357093,11
357101,10
357109,7
357117,9
357125,16
357133,21
357141,20
357149,16
357157,13
357165,15
357173,26
357181,32
357189,37
357197,37
357205,36
357213,34
357221,33
357229,31
357237,31
357245,29
357253,33
357261,35
357269,39
357277,36
357285,30
357293,30
357301,29
357309,33
357317,36
357325,41
357333,48
357341,57
357349,67
357357,71
357365,70
357373,66
357381,61
357389,51
357397,44
357405,31
357413,20
357421,29
357429,43
357437,-37
357445,-116
357453,108
357461,641
357469,957
357477,637
357485,-41
357493,-433
357501,-331
357509,-96
357517,-42
357525,-78
357533,-66
357541,-34
357549,-27
357557,-24
357565,-19
357573,-8
357581,2
357589,8
357597,11
357605,22
357613,34
357621,42
357629,43
357637,38
357645,33
357653,33
357661,45
357669,50
357677,54
357685,55
357693,69
357701,88
357709,112
357717,130
357725,145
357733,162
357741,181
357749,186
357757,180
357765,155
357773,128
357781,96
357789,58
357797,21
357805,-7
357813,-32
357821,-56
357829,-73
357837,-75
357845,-74
357853,-84
357861,-100
357869,-105
357877,-103
357885,-105
357893,-109
357901,-110
357909,-102
357917,-89
357925,-79
357933,-73
357941,-68
357949,-66
357957,-62
357965,-61
357973,-61
357981,-63
357989,-70
357997,-79
358005,-91
358013,-91
358021,-87
358029,-83
358037,-77
358045,-74
358053,-67
358061,-63
358069,-65
358077,-69
358085,-70
358093,-70
358101,-67
358109,-66
358117,-72
358125,-70
358133,-64
358141,-45
358149,-31
358157,-22
358165,-16
358173,-11
358181,-11
358189,-12
358197,-12
358205,-9
358213,-10
358221,-24
358229,-28
358237,-28
358245,-29
358253,-33
358261,-35
358269,-37
358277,-39
358285,-39
358293,-36
358301,-43
358309,-42
358317,-47
358325,-48
358333,-47
358341,-45
358349,-35
358357,-26
358365,-25
358373,-31
358381,-43
358389,-43
358397,-42
358405,-43
358413,-51
358421,-72
358429,-72
358437,-39
358445,-76
358453,-176
358461,-56
358469,405
358477,807
358485,653
358493,34
358501,-456
358509,-458
358517,-222
358525,-120
358533,-150
358541,-157
358549,-137
358557,-126
358565,-120
358573,-116
358581,-114
358589,-108
358597,-102
358605,-97
358613,-88
358621,-81
358629,-72
358637,-67
358645,-61
358653,-56
358661,-50
358669,-40
358677,-32
358685,-23
358693,-17
358701,-13
358709,3
358717,30
358725,65
358733,95
358741,114
358749,127
358757,133
358765,132
358773,117
358781,90
358789,55
358797,12
358805,-23
358813,-55
358821,-84
358829,-102
358837,-119
358845,-136
358853,-144
358861,-144
358869,-147
358877,-156
358885,-164
358893,-170
358901,-170
358909,-165
358917,-151
358925,-135
358933,-128
358941,-120
358949,-118
358957,-124
358965,-130
358973,-134
358981,-130
358989,-123
358997,-125
359005,-129
359013,-126
359021,-123
359029,-121
359037,-117
359045,-112
359053,-109
359061,-106
359069,-108
359077,-109
359085,-108
359093,-116
359101,-129
359109,-128
359117,-117
359125,-114
359133,-118
359141,-124
359149,-120
359157,-115
359165,-116
359173,-130
359181,-138
359189,-141
359197,-142
359205,-138
359213,-138
359221,-136
359229,-137
359237,-140
359245,-144
359253,-145
359261,-148
359269,-142
359277,-144
359285,-148
359293,-159
359301,-159
359309,-155
359317,-153
359325,-157
359333,-155
359341,-168
359349,-190
359357,-200
359365,-188
359373,-164
359381,-144
359389,-144
359397,-151
359405,-164
359413,-182
359421,-202
359429,-219
359437,-224
359445,-195
359453,-205
359461,-319
359469,-308
359477,73
359485,558
359493,571
359501,-5
359509,-625
359517,-752
359525,-498
359533,-291
359541,-275
359549,-291
359557,-278
359565,-275
359573,-276
359581,-264
359589,-252
359597,-252
359605,-251
359613,-240
359621,-224
359629,-218
359637,-222
359645,-226
359653,-212
359661,-188
359669,-173
359677,-169
359685,-165
359693,-146
359701,-120
359709,-100
359717,-79
359725,-58
359733,-30
359741,-1
359749,30
359757,52
359765,62
359773,59
359781,48
359789,37
359797,16
359805,-19
359813,-56
359821,-91
359829,-126
359837,-164
359845,-186
359853,-196
359861,-201
359869,-212
359877,-218
359885,-224
359893,-226
359901,-227
359909,-220
359917,-211
359925,-200
359933,-201
359941,-197
359949,-191
359957,-184
359965,-174
359973,-166
359981,-159
359989,-158
359997,-154
360005,-143
360013,-144
360021,-152
360029,-153
360037,-152
360045,-147
360053,-144
360061,-140
360069,-141
360077,-139
360085,-128
360093,-117
360101,-116
360109,-131
360117,-144
360125,-146
360133,-140
360141,-135
360149,-130
360157,-130
360165,-134
360173,-131
360181,-127
360189,-112
360197,-95
360205,-80
360213,-72
360221,-75
360229,-74
360237,-64
360245,-58
360253,-52
360261,-45
360269,-36
360277,-41
360285,-60
360293,-82
360301,-80
360309,-58
360317,-26
360325,-1
360333,3
360341,-11
360349,-22
360357,-35
360365,-50
360373,-57
360381,-28
360389,-30
360397,-141
360405,-114
360413,295
360421,790
360429,768
360437,104
360445,-587
360453,-720
360461,-403
360469,-132
360477,-92
360485,-110
360493,-90
360501,-71
360509,-56
360517,-60
360525,-72
360533,-69
360541,-55
360549,-45
360557,-44
360565,-43
360573,-39
360581,-30
360589,-25
360597,-27
360605,-32
360613,-35
360621,-33
360629,-24
360637,-15
360645,-5
360653,11
360661,39
360669,72
360677,99
360685,123
360693,138
360701,148
360709,143
360717,124
360725,93
360733,63
360741,19
360749,-39
360757,-94
360765,-136
360773,-164
360781,-178
360789,-189
360797,-194
360805,-199
360813,-196
360821,-191
360829,-184
360837,-182
360845,-183
360853,-177
360861,-162
360869,-144
360877,-133
360885,-125
360893,-118
360901,-117
360909,-112
360917,-110
360925,-99
360933,-87
360941,-82
360949,-84
360957,-88
360965,-86
360973,-80
360981,-76
360989,-76
360997,-82
361005,-85
361013,-78
361021,-75
361029,-73
361037,-66
361045,-59
361053,-49
361061,-43
361069,-33
361077,-28
361085,-34
361093,-46
361101,-45
361109,-32
361117,-21
361125,-30
361133,-36
361141,-39
361149,-38
361157,-35
361165,-30
361173,-19
361181,-8
361189,-7
361197,-4
361205,-3
361213,-10
361221,-17
361229,-23
361237,-25
361245,-24
361253,-27
361261,-28
361269,-15
361277,9
361285,28
361293,40
361301,45
361309,43
361317,35
361325,23
361333,5
361341,14
361349,62
361357,33
361365,-88
361373,-5
361381,468
361389,941
361397,843
361405,188
361413,-388
361421,-444
361429,-194
361437,-62
361445,-92
361453,-101
361461,-60
361469,-35
361477,-30
361485,-26
361493,-21
361501,-20
361509,-22
361517,-26
361525,-18
361533,-4
361541,8
361549,12
361557,17
361565,20
361573,23
361581,26
361589,32
361597,46
361605,57
361613,68
361621,86
361629,104
361637,131
361645,157
361653,186
361661,205
361669,215
361677,222
361685,218
361693,195
361701,154
361709,108
361717,69
361725,31
361733,-4
361741,-40
361749,-61
361757,-68
361765,-71
361773,-76
361781,-85
361789,-88
361797,-95
361805,-96
361813,-92
361821,-83
361829,-73
361837,-69
361845,-70
361853,-70
361861,-61
361869,-48
361877,-35
361885,-25
361893,-28
361901,-34
361909,-41
361917,-38
361925,-39
361933,-46
361941,-53
361949,-56
361957,-55
361965,-57
361973,-63
361981,-64
361989,-62
361997,-63
362005,-67
362013,-70
362021,-70
362029,-65
362037,-54
362045,-37
362053,-27
362061,-27
362069,-32
362077,-27
362085,-14
362093,-12
362101,-16
362109,-22
362117,-23
362125,-23
362133,-22
362141,-21
362149,-16
362157,-10
362165,-14
362173,-17
362181,-16
362189,-21
362197,-37
362205,-54
362213,-63
362221,-62
362229,-47
362237,-21
362245,12
362253,36
362261,42
362269,39
362277,33
362285,13
362293,-10
362301,7
362309,41
362317,-22
362325,-110
362333,93
362341,605
362349,922
362357,625
362365,-36
362373,-428
362381,-334
362389,-102
362397,-45
362405,-75
362413,-62
362421,-31
362429,-26
362437,-24
362445,-26
362453,-23
362461,-20
362469,-20
362477,-14
362485,0
362493,16
362501,21
362509,11
362517,2
362525,1
362533,12
362541,24
362549,30
362557,39
362565,46
362573,66
362581,88
362589,109
362597,127
362605,150
362613,170
362621,182
362629,188
362637,191
362645,186
362653,163
362661,122
362669,72
362677,21
362685,-18
362693,-44
362701,-52
362709,-59
362717,-66
362725,-70
362733,-71
362741,-73
362749,-77
362757,-74
362765,-68
362773,-56
362781,-48
362789,-52
362797,-61
362805,-65
362813,-60
362821,-45
362829,-37
362837,-35
362845,-39
362853,-42
362861,-45
362869,-45
362877,-46
362885,-57
362893,-70
362901,-76
362909,-77
362917,-76
362925,-82
362933,-83
362941,-83
362949,-87
362957,-92
362965,-92
362973,-86
362981,-74
362989,-69
362997,-69
363005,-74
363013,-83
363021,-82
363029,-73
363037,-67
363045,-62
363053,-60
363061,-62
363069,-65
363077,-66
363085,-67
363093,-62
363101,-58
363109,-55
363117,-53
363125,-51
363133,-53
363141,-55
363149,-51
363157,-49
363165,-53
363173,-64
363181,-82
363189,-92
363197,-83
363205,-60
363213,-34
363221,-19
363229,-15
363237,-18
363245,-22
363253,-35
363261,-63
363269,-84
363277,-60
363285,-39
363293,-124
363301,-166
363309,134
363317,661
363325,859
363333,434
363341,-222
363349,-505
363357,-344
363365,-137
363373,-115
363381,-144
363389,-126
363397,-98
363405,-87
363413,-89
363421,-92
363429,-92
363437,-89
363445,-88
363453,-84
363461,-74
363469,-62
363477,-56
363485,-65
363493,-72
363501,-75
363509,-71
363517,-67
363525,-59
363533,-45
363541,-32
363549,-19
363557,-7
363565,16
363573,43
363581,69
363589,81
363597,91
363605,95
363613,91
363621,74
363629,45
363637,6
363645,-43
363653,-84
363661,-114
363669,-135
363677,-160
363685,-192
363693,-223
363701,-247
363709,-257
363717,-255
363725,-259
363733,-275
363741,-296
363749,-301
363757,-290
363765,-269
363773,-258
363781,-260
363789,-267
363797,-275
363805,-282
363813,-287
363821,-291
363829,-293
363837,-303
363845,-313
363853,-330
363861,-333
363869,-321
363877,-305
363885,-297
363893,-304
363901,-310
363909,-313
363917,-314
363925,-323
363933,-335
363941,-333
363949,-326
363957,-317
363965,-317
363973,-322
363981,-323
363989,-318
363997,-312
364005,-303
364013,-307
364021,-310
364029,-313
364037,-307
364045,-296
364053,-287
364061,-275
364069,-267
364077,-254
364085,-246
364093,-246
364101,-235
364109,-226
364117,-218
364125,-216
364133,-220
364141,-225
364149,-227
364157,-234
364165,-239
364173,-236
364181,-219
364189,-192
364197,-171
364205,-159
364213,-166
364221,-177
364229,-175
364237,-182
364245,-201
364253,-189
364261,-144
364269,-186
364277,-278
364285,-114
364293,386
364301,739
364309,461
364317,-259
364325,-730
364333,-634
364341,-322
364349,-188
364357,-206
364365,-199
364373,-170
364381,-161
364389,-160
364397,-160
364405,-155
364413,-149
364421,-143
364429,-138
364437,-136
364445,-125
364453,-116
364461,-105
364469,-91
364477,-77
364485,-66
364493,-63
364501,-60
364509,-50
364517,-32
364525,-13
364533,6
364541,26
364549,50
364557,81
364565,107
364573,124
364581,128
364589,128
364597,124
364605,108
364613,70
364621,17
364629,-33
364637,-69
364645,-94
364653,-120
364661,-144
364669,-154
364677,-156
364685,-156
364693,-160
364701,-157
364709,-147
364717,-138
364725,-137
364733,-134
364741,-125
364749,-113
364757,-106
364765,-102
364773,-109
364781,-113
364789,-115
364797,-113
364805,-113
364813,-112
364821,-108
364829,-104
364837,-104
364845,-106
364853,-104
364861,-101
364869,-103
364877,-117
364885,-126
364893,-131
364901,-126
364909,-120
364917,-113
364925,-106
364933,-109
364941,-116
364949,-121
364957,-117
364965,-104
364973,-92
364981,-78
364989,-76
364997,-77
365005,-77
365013,-72
365021,-69
365029,-67
365037,-66
365045,-60
365053,-56
365061,-54
365069,-55
365077,-51
365085,-51
365093,-52
365101,-50
365109,-45
365117,-44
365125,-51
365133,-59
365141,-59
365149,-48
365157,-28
365165,-9
365173,13
365181,29
365189,29
365197,23
365205,13
365213,6
365221,-7
365229,13
365237,34
365245,-47
365253,-123
365261,117
365269,654
365277,944
365285,573
365293,-145
365301,-539
365309,-391
365317,-102
365325,-14
365333,-45
365341,-46
365349,-26
365357,-14
365365,-3
365373,1
365381,2
365389,4
365397,4
365405,9
365413,10
365421,12
365429,11
365437,3
365445,4
365453,13
365461,25
365469,30
365477,32
365485,34
365493,45
365501,65
365509,92
365517,113
365525,140
365533,161
365541,178
365549,186
365557,191
365565,194
365573,193
365581,176
365589,144
365597,103
365605,56
365613,17
365621,-16
365629,-33
365637,-45
365645,-53
365653,-62
365661,-68
365669,-68
365677,-64
365685,-63
365693,-67
365701,-74
365709,-73
365717,-67
365725,-58
365733,-51
365741,-48
365749,-47
365757,-45
365765,-34
365773,-23
365781,-11
365789,2
365797,2
365805,-4
365813,-8
365821,-5
365829,-5
365837,-5
365845,-1
365853,3
365861,1
365869,-6
365877,-11
365885,-8
365893,-13
365901,-23
365909,-26
365917,-22
365925,-13
365933,-6
365941,0
365949,8
365957,11
365965,10
365973,5
365981,1
365989,-2
365997,0
366005,5
366013,7
366021,7
366029,12
366037,12
366045,12
366053,6
366061,8
366069,11
366077,14
366085,20
366093,26
366101,20
366109,1
366117,-17
366125,-19
366133,-6
366141,18
366149,44
366157,67
366165,77
366173,76
366181,59
366189,30
366197,-7
366205,-30
366213,-3
366221,-5
366229,-107
366237,-81
366245,315
366253,822
366261,871
366269,324
366277,-289
366285,-445
366293,-223
366301,-50
366309,-60
366317,-86
366325,-66
366333,-53
366341,-52
366349,-48
366357,-37
366365,-31
366373,-32
366381,-37
366389,-40
366397,-34
366405,-30
366413,-28
366421,-37
366429,-43
366437,-46
366445,-43
366453,-38
366461,-35
366469,-25
366477,-18
366485,-8
366493,10
366501,39
366509,71
366517,89
366525,90
366533,92
366541,98
366549,107
366557,107
366565,88
366573,56
366581,18
366589,-19
366597,-52
366605,-83
366613,-106
366621,-124
366629,-136
366637,-147
366645,-155
366653,-155
366661,-153
366669,-149
366677,-140
366685,-131
366693,-123
366701,-119
366709,-123
366717,-127
366725,-127
366733,-124
366741,-117
366749,-105
366757,-98
366765,-94
366773,-96
366781,-102
366789,-111
366797,-117
366805,-115
366813,-115
366821,-115
366829,-112
366837,-108
366845,-107
366853,-106
366861,-102
366869,-94
366877,-92
366885,-101
366893,-107
366901,-107
366909,-102
366917,-90
366925,-79
366933,-78
366941,-84
366949,-91
366957,-93
366965,-90
366973,-84
366981,-79
366989,-78
366997,-82
367005,-85
367013,-87
367021,-90
367029,-91
367037,-89
367045,-84
367053,-79
367061,-82
367069,-83
367077,-76
367085,-70
367093,-78
367101,-86
367109,-86
367117,-76
367125,-56
367133,-45
367141,-39
367149,-38
367157,-41
367165,-48
367173,-68
367181,-95
367189,-111
367197,-85
367205,-51
367213,-133
367221,-200
367229,54
367237,565
367245,802
367253,424
367261,-241
367269,-576
367277,-447
367285,-229
367293,-186
367301,-216
367309,-205
367317,-197
367325,-211
367333,-223
367341,-228
367349,-227
367357,-233
367365,-246
367373,-252
367381,-246
367389,-235
367397,-234
367405,-242
367413,-242
367421,-236
367429,-225
367437,-223
367445,-223
367453,-221
367461,-202
367469,-180
367477,-153
367485,-137
367493,-127
367501,-118
367509,-99
367517,-81
367525,-67
367533,-68
367541,-84
367549,-111
367557,-147
367565,-185
367573,-226
367581,-257
367589,-278
367597,-295
367605,-302
367613,-311
367621,-320
367629,-324
367637,-314
367645,-305
367653,-301
367661,-303
367669,-310
367677,-314
367685,-310
367693,-307
367701,-303
367709,-300
367717,-295
367725,-285
367733,-275
367741,-275
367749,-275
367757,-271
367765,-264
367773,-256
367781,-251
367789,-248
367797,-241
367805,-241
367813,-240
367821,-231
367829,-222
367837,-219
367845,-216
367853,-215
367861,-208
367869,-197
367877,-189
367885,-183
367893,-176
367901,-177
367909,-173
367917,-166
367925,-152
367933,-151
367941,-145
367949,-138
367957,-131
367965,-130
367973,-136
367981,-144
367989,-141
367997,-142
368005,-149
368013,-153
368021,-152
368029,-147
368037,-142
368045,-137
368053,-125
368061,-115
368069,-111
368077,-100
368085,-75
368093,-53
368101,-51
368109,-66
368117,-81
368125,-84
368133,-90
368141,-96
368149,-74
368157,-71
368165,-171
368173,-182
368181,173
368189,691
368197,766
368205,184
368213,-535
368221,-748
368229,-463
368237,-164
368245,-99
368253,-122
368261,-110
368269,-88
368277,-74
368285,-67
368293,-60
368301,-48
368309,-45
368317,-40
368325,-33
368333,-14
368341,4
368349,16
368357,20
368365,24
368373,29
368381,34
368389,40
368397,57
368405,67
368413,80
368421,104
368429,137
368437,168
368445,192
368453,205
368461,210
368469,214
368477,218
368485,220
368493,214
368501,192
368509,157
368517,116
368525,74
368533,33
368541,0
368549,-25
368557,-47
368565,-62
368573,-68
368581,-78
368589,-86
368597,-93
368605,-91
368613,-91
368621,-89
368629,-93
368637,-87
368645,-77
368653,-67
368661,-64
368669,-65
368677,-69
368685,-70
368693,-72
368701,-75
368709,-81
368717,-80
368725,-71
368733,-60
368741,-51
368749,-49
368757,-55
368765,-60
368773,-58
368781,-55
368789,-54
368797,-56
368805,-55
368813,-47
368821,-33
368829,-20
368837,-14
368845,-14
368853,-16
368861,-18
368869,-18
368877,-20
368885,-17
368893,-13
368901,-7
368909,-4
368917,3
368925,13
368933,31
368941,45
368949,49
368957,40
368965,33
368973,29
368981,30
368989,38
368997,41
369005,38
369013,31
369021,25
369029,21
369037,21
369045,31
369053,54
369061,76
369069,88
369077,88
369085,79
369093,65
369101,39
369109,14
369117,29
369125,61
369133,-10
369141,-89
369149,136
369157,665
369165,973
369173,636
369181,-55
369189,-453
369197,-331
369205,-64
369213,18
369221,-16
369229,-15
369237,6
369245,17
369253,18
369261,14
369269,10
369277,11
369285,18
369293,23
369301,37
369309,47
369317,54
369325,56
369333,52
369341,44
369349,48
369357,57
369365,65
369373,76
369381,94
369389,115
369397,130
369405,147
369413,163
369421,183
369429,203
369437,217
369445,219
369453,215
369461,205
369469,190
369477,162
369485,125
369493,82
369501,46
369509,19
369517,3
369525,-16
369533,-36
369541,-58
369549,-74
369557,-83
369565,-88
369573,-101
369581,-114
369589,-121
369597,-121
369605,-123
369613,-122
369621,-118
369629,-106
369637,-98
369645,-94
369653,-87
369661,-70
369669,-61
369677,-71
369685,-81
369693,-80
369701,-67
369709,-54
369717,-45
369725,-39
369733,-40
369741,-49
369749,-57
369757,-64
369765,-72
369773,-78
369781,-76
369789,-64
369797,-46
369805,-37
369813,-35
369821,-43
369829,-46
369837,-43
369845,-35
369853,-31
369861,-34
369869,-39
369877,-48
369885,-53
369893,-51
369901,-48
369909,-45
369917,-42
369925,-43
369933,-43
369941,-44
369949,-39
369957,-44
369965,-46
369973,-56
369981,-60
369989,-60
369997,-50
370005,-35
370013,-17
370021,-6
370029,-1
370037,-5
370045,-12
370053,-33
370061,-55
370069,-45
370077,-8
370085,-53
370093,-146
370101,17
370109,501
370117,848
370125,597
370133,-62
370141,-503
370149,-441
370157,-196
370165,-116
370173,-153
370181,-156
370189,-130
370197,-122
370205,-118
370213,-118
370221,-113
370229,-99
370237,-85
370245,-73
370253,-66
370261,-75
370269,-81
370277,-86
370285,-83
370293,-76
370301,-60
370309,-48
370317,-33
370325,-21
370333,-10
370341,-5
370349,6
370357,23
370365,44
370373,67
370381,90
370389,106
370397,121
370405,120
370413,105
370421,87
370429,61
370437,24
370445,-20
370453,-68
370461,-105
370469,-127
370477,-138
370485,-149
370493,-164
370501,-171
370509,-175
370517,-169
370525,-158
370533,-154
370541,-156
370549,-164
370557,-163
370565,-155
370573,-146
370581,-140
370589,-134
370597,-123
370605,-117
370613,-111
370621,-108
370629,-106
370637,-110
370645,-111
370653,-111
370661,-108
370669,-111
370677,-113
370685,-109
370693,-103
370701,-101
370709,-105
370717,-109
370725,-108
370733,-104
370741,-107
370749,-109
370757,-109
370765,-107
370773,-102
370781,-98
370789,-100
370797,-108
370805,-119
370813,-123
370821,-121
370829,-116
370837,-114
370845,-115
370853,-115
370861,-115
370869,-115
370877,-113
370885,-108
370893,-98
370901,-94
370909,-93
370917,-95
370925,-97
370933,-99
370941,-108
370949,-120
370957,-123
370965,-111
370973,-88
370981,-66
370989,-57
370997,-51
371005,-49
371013,-61
371021,-77
371029,-96
371037,-92
371045,-56
371053,-89
371061,-190
371069,-80
371077,372
371085,777
371093,638
371101,27
371109,-463
371117,-466
371125,-222
371133,-107
371141,-126
371149,-124
371157,-98
371165,-91
371173,-94
371181,-93
371189,-94
371197,-98
371205,-99
371213,-96
371221,-90
371229,-81
371237,-70
371245,-64
371253,-60
371261,-63
371269,-61
371277,-52
371285,-46
371293,-39
371301,-34
371309,-26
371317,-3
371325,25
371333,49
371341,62
371349,74
371357,85
371365,102
371373,109
371381,99
371389,76
371397,53
371405,32
371413,11
371421,-20
371429,-53
371437,-91
371445,-114
371453,-129
371461,-138
371469,-143
371477,-143
371485,-138
371493,-133
371501,-132
371509,-133
371517,-130
371525,-118
371533,-110
371541,-108
371549,-114
371557,-117
371565,-110
371573,-99
371581,-88
371589,-86
371597,-85
371605,-84
371613,-83
371621,-79
371629,-77
371637,-79
371645,-85
371653,-95
371661,-105
371669,-115
371677,-122
371685,-123
371693,-121
371701,-118
371709,-120
371717,-122
371725,-125
371733,-122
371741,-111
371749,-99
371757,-100
371765,-106
371773,-113
371781,-111
371789,-108
371797,-106
371805,-112
371813,-107
371821,-98
371829,-90
371837,-86
371845,-81
371853,-77
371861,-75
371869,-77
371877,-76
371885,-67
371893,-60
371901,-57
371909,-64
371917,-81
371925,-94
371933,-87
371941,-58
371949,-28
371957,-10
371965,-7
371973,-13
371981,-28
371989,-49
371997,-78
372005,-93
372013,-66
372021,-63
372029,-159
372037,-169
372045,172
372053,658
372061,731
372069,211
372077,-425
372085,-613
372093,-394
372101,-199
372109,-196
372117,-222
372125,-202
372133,-188
372141,-192
372149,-195
372157,-198
372165,-202
372173,-217
372181,-222
372189,-218
372197,-213
372205,-215
372213,-220
372221,-224
372229,-223
372237,-222
372245,-218
372253,-218
372261,-214
372269,-210
372277,-200
372285,-188
372293,-174
372301,-150
372309,-134
372317,-118
372325,-111
372333,-105
372341,-114
372349,-136
372357,-163
372365,-193
372373,-238
372381,-287
372389,-330
372397,-364
372405,-398
372413,-435
372421,-460
372429,-465
372437,-462
372445,-460
372453,-459
372461,-461
372469,-450
372477,-432
372485,-413
372493,-396
372501,-382
372509,-382
372517,-383
372525,-382
372533,-370
372541,-351
372549,-328
372557,-313
372565,-310
372573,-304
372581,-297
372589,-293
372597,-288
372605,-280
372613,-266
372621,-254
372629,-251
372637,-251
372645,-244
372653,-238
372661,-236
372669,-239
372677,-241
372685,-231
372693,-219
372701,-206
372709,-198
372717,-192
372725,-186
372733,-179
372741,-176
372749,-175
372757,-166
372765,-158
372773,-163
372781,-174
372789,-171
372797,-155
372805,-144
372813,-145
372821,-150
372829,-142
372837,-132
372845,-131
372853,-144
372861,-149
372869,-129
372877,-93
372885,-57
372893,-49
372901,-73
372909,-110
372917,-113
372925,-104
372933,-79
372941,-40
372949,-78
372957,-191
372965,-90
372973,383
372981,809
372989,624
372997,-114
373005,-719
373013,-709
373021,-343
373029,-122
373037,-120
373045,-130
373053,-102
373061,-77
373069,-62
373077,-54
373085,-50
373093,-44
373101,-33
373109,-19
373117,-6
373125,-11
373133,-16
373141,-8
373149,7
373157,19
373165,28
373173,35
373181,40
373189,59
373197,83
373205,99
373213,111
373221,128
373229,156
373237,191
373245,216
373253,232
373261,250
373269,253
373277,228
373285,190
373293,147
373301,106
373309,62
373317,15
373325,-43
373333,-81
373341,-96
373349,-99
373357,-110
373365,-125
373373,-129
373381,-110
373389,-88
373397,-81
373405,-82
373413,-82
373421,-77
373429,-69
373437,-71
373445,-79
373453,-82
373461,-72
373469,-62
373477,-59
373485,-62
373493,-59
373501,-50
373509,-57
373517,-66
373525,-57
373533,-52
373541,-71
373549,-92
373557,-81
373565,-56
373573,-56
373581,-74
373589,-83
373597,-59
373605,-51
373613,-64
373621,-66
373629,-49
373637,-48
373645,-60
373653,-66
373661,-52
373669,-40
373677,-40
373685,-46
373693,-40
373701,-37
373709,-49
373717,-58
373725,-46
373733,-35
373741,-34
373749,-54
373757,-76
373765,-78
373773,-68
373781,-46
373789,-18
373797,3
373805,5
373813,-22
373821,-38
373829,-40
373837,-48
373845,-29
373853,-40
373861,-146
373869,-111
373877,326
373885,885
373893,899
373901,206
373909,-551
373917,-703
373925,-367
373933,-109
373941,-108
373949,-145
373957,-121
373965,-93
373973,-89
373981,-98
373989,-91
373997,-80
374005,-77
374013,-88
374021,-99
374029,-104
374037,-91
374045,-76
374053,-77
374061,-79
374069,-70
374077,-55
374085,-41
374093,-38
374101,-32
374109,-6
374117,39
374125,76
374133,103
374141,127
374149,146
374157,155
374165,154
374173,153
374181,145
374189,120
374197,77
374205,27
374213,-22
374221,-63
374229,-115
374237,-152
374245,-169
374253,-169
374261,-178
374269,-193
374277,-200
374285,-196
374293,-195
374301,-203
374309,-210
374317,-199
374325,-184
374333,-178
374341,-182
374349,-185
374357,-192
374365,-204
374373,-204
374381,-188
374389,-183
374397,-179
374405,-180
374413,-177
374421,-177
374429,-179
374437,-178
374445,-183
374453,-191
374461,-199
374469,-202
374477,-192
374485,-181
374493,-175
374501,-172
374509,-169
374517,-158
374525,-148
374533,-140
374541,-142
374549,-144
374557,-144
374565,-144
374573,-142
374581,-133
374589,-132
374597,-133
374605,-139
374613,-137
374621,-128
374629,-127
374637,-132
374645,-134
374653,-132
374661,-120
374669,-96
374677,-68
374685,-47
374693,-43
374701,-55
374709,-75
374717,-90
374725,-96
374733,-81
374741,-25
374749,-28
374757,-142
374765,-82
374773,398
374781,945
374789,902
374797,205
374805,-488
374813,-602
374821,-316
374829,-119
374837,-122
374845,-128
374853,-92
374861,-72
374869,-66
374877,-50
374885,-33
374893,-22
374901,-22
374909,-23
374917,-22
374925,-23
374933,-21
374941,-12
374949,0
374957,10
374965,12
374973,22
374981,49
374989,75
374997,85
375005,86
375013,91
375021,116
375029,142
375037,168
375045,191
375053,215
375061,228
375069,232
375077,227
375085,210
375093,179
375101,134
375109,85
375117,48
375125,12
375133,-15
375141,-35
375149,-45
375157,-56
375165,-68
375173,-75
375181,-72
375189,-74
375197,-67
375205,-54
375213,-42
375221,-40
375229,-49
375237,-56
375245,-55
375253,-45
375261,-31
375269,-25
375277,-31
375285,-39
375293,-34
375301,-20
375309,-14
375317,-27
375325,-36
375333,-32
375341,-26
375349,-20
375357,-17
375365,-14
375373,-16
375381,-25
375389,-27
375397,-18
375405,1
375413,10
375421,9
375429,3
375437,3
375445,10
375453,16
375461,18
375469,18
375477,16
375485,15
375493,12
375501,11
375509,21
375517,31
375525,24
375533,11
375541,11
375549,19
375557,25
375565,23
375573,17
375581,10
375589,16
375597,31
375605,52
375613,64
375621,72
375629,70
375637,56
375645,40
375653,26
375661,15
375669,37
375677,73
375685,5
375693,-93
375701,116
375709,675
375717,1039
375725,730
375733,-11
375741,-475
375749,-384
375757,-111
375765,-27
375773,-64
375781,-64
375789,-38
375797,-33
375805,-33
375813,-29
375821,-24
375829,-17
375837,-8
375845,-1
375853,-1
375861,-6
375869,-9
375877,-8
375885,-4
375893,3
375901,14
375909,25
375917,40
375925,47
375933,53
375941,67
375949,84
375957,109
375965,132
375973,160
375981,181
375989,202
375997,212
376005,211
376013,198
376021,182
376029,153
376037,123
376045,86
376053,50
376061,22
376069,-7
376077,-34
376085,-47
376093,-53
376101,-53
376109,-57
376117,-66
376125,-76
376133,-81
376141,-78
376149,-78
376157,-81
376165,-75
376173,-65
376181,-59
376189,-59
376197,-58
376205,-53
376213,-46
376221,-47
376229,-50
376237,-51
376245,-55
376253,-58
376261,-61
376269,-64
376277,-65
376285,-60
376293,-60
376301,-63
376309,-62
376317,-56
376325,-50
376333,-50
376341,-55
376349,-57
376357,-56
376365,-53
376373,-49
376381,-43
376389,-39
376397,-33
376405,-27
376413,-17
376421,-20
376429,-18
376437,-13
376445,-4
376453,4
376461,8
376469,11
376477,14
376485,17
376493,20
376501,17
376509,8
376517,1
376525,2
376533,20
376541,47
376549,68
376557,77
376565,82
376573,79
376581,67
376589,47
376597,26
376605,29
376613,73
376621,71
376629,-39
376637,6
376645,445
376653,961
376661,956
376669,346
376677,-281
376685,-416
376693,-192
376701,-40
376709,-56
376717,-73
376725,-54
376733,-49
376741,-47
376749,-39
376757,-34
376765,-30
376773,-21
376781,-17
376789,-18
376797,-19
376805,-20
376813,-17
376821,-12
376829,-4
376837,6
376845,18
376853,26
376861,35
376869,42
376877,52
376885,67
376893,88
376901,109
376909,127
376917,145
376925,156
376933,168
376941,176
376949,177
376957,165
376965,139
376973,93
376981,52
376989,19
376997,6
377005,-6
377013,-20
377021,-35
377029,-43
377037,-45
377045,-49
377053,-60
377061,-72
377069,-83
377077,-81
377085,-73
377093,-62
377101,-62
377109,-70
377117,-73
377125,-73
377133,-66
377141,-54
377149,-52
377157,-53
377165,-62
377173,-73
377181,-72
377189,-68
377197,-65
377205,-62
377213,-56
377221,-50
377229,-43
377237,-51
377245,-59
377253,-67
377261,-66
377269,-59
377277,-52
377285,-48
377293,-44
377301,-42
377309,-41
377317,-58
377325,-76
377333,-83
377341,-74
377349,-70
377357,-70
377365,-72
377373,-67
377381,-70
377389,-73
377397,-65
377405,-55
377413,-51
377421,-52
377429,-55
377437,-58
377445,-60
377453,-67
377461,-76
377469,-90
377477,-101
377485,-101
377493,-84
377501,-60
377509,-42
377517,-30
377525,-29
377533,-32
377541,-50
377549,-68
377557,-90
377565,-91
377573,-60
377581,-73
377589,-185
377597,-145
377605,266
377613,743
377621,740
377629,177
377637,-396
377645,-511
377653,-295
377661,-161
377669,-184
377677,-196
377685,-164
377693,-145
377701,-146
377709,-149
377717,-143
377725,-129
377733,-119
377741,-118
377749,-123
377757,-124
377765,-119
377773,-114
377781,-109
377789,-106
377797,-104
377805,-96
377813,-82
377821,-67
377829,-58
377837,-50
377845,-41
377853,-33
377861,-22
377869,-6
377877,11
377885,27
377893,36
377901,32
377909,31
377917,24
377925,1
377933,-38
377941,-80
377949,-115
377957,-144
377965,-174
377973,-205
377981,-229
377989,-239
377997,-243
378005,-254
378013,-265
378021,-275
378029,-281
378037,-279
378045,-272
378053,-261
378061,-258
378069,-258
378077,-262
378085,-268
378093,-276
378101,-288
378109,-291
378117,-281
378125,-275
378133,-282
378141,-294
378149,-303
378157,-307
378165,-309
378173,-319
378181,-323
378189,-316
378197,-307
378205,-303
378213,-303
378221,-305
378229,-309
378237,-309
378245,-311
378253,-312
378261,-307
378269,-299
378277,-294
378285,-295
378293,-288
378301,-282
378309,-270
378317,-266
378325,-269
378333,-275
378341,-275
378349,-268
378357,-265
378365,-267
378373,-269
378381,-261
378389,-242
378397,-223
378405,-213
378413,-203
378421,-203
378429,-211
378437,-223
378445,-227
378453,-214
378461,-191
378469,-169
378477,-151
378485,-142
378493,-141
378501,-142
378509,-142
378517,-139
378525,-148
378533,-159
378541,-140
378549,-113
378557,-192
378565,-259
378573,-1
378581,525
378589,759
378597,330
378605,-403
378613,-756
378621,-569
378629,-269
378637,-185
378645,-206
378653,-192
378661,-165
378669,-157
378677,-152
378685,-144
378693,-136
378701,-138
378709,-141
378717,-139
378725,-133
378733,-132
378741,-132
378749,-119
378757,-104
378765,-96
378773,-91
378781,-83
378789,-60
378797,-29
378805,-3
378813,18
378821,31
378829,51
378837,81
378845,113
378853,140
378861,151
378869,157
378877,152
378885,137
378893,107
378901,70
378909,28
378917,-13
378925,-51
378933,-89
378941,-119
378949,-135
378957,-142
378965,-150
378973,-164
378981,-179
378989,-183
378997,-181
379005,-179
379013,-177
379021,-174
379029,-163
379037,-151
379045,-145
379053,-146
379061,-147
379069,-138
379077,-124
379085,-117
379093,-119
379101,-122
379109,-125
379117,-127
379125,-122
379133,-116
379141,-116
379149,-113
379157,-108
379165,-100
379173,-98
379181,-101
379189,-99
379197,-87
379205,-77
379213,-76
379221,-82
379229,-84
379237,-86
379245,-82
379253,-81
379261,-82
379269,-83
379277,-78
379285,-72
379293,-63
379301,-65
379309,-71
379317,-71
379325,-64
379333,-63
379341,-67
379349,-77
379357,-77
379365,-65
379373,-59
379381,-62
379389,-67
379397,-72
379405,-76
379413,-83
379421,-75
379429,-50
379437,-13
379445,3
379453,3
379461,-13
379469,-25
379477,-38
379485,-59
379493,-73
379501,-42
379509,-19
379517,-106
379525,-166
379533,122
379541,656
379549,865
379557,409
379565,-308
379573,-622
379581,-425
379589,-146
379597,-75
379605,-90
379613,-67
379621,-40
379629,-28
379637,-21
379645,-17
379653,-8
379661,-7
379669,-6
379677,0
379685,-1
379693,0
379701,4
379709,14
379717,20
379725,18
379733,20
379741,34
379749,50
379757,66
379765,81
379773,101
379781,115
379789,121
379797,131
379805,146
379813,169
379821,185
379829,190
379837,191
379845,190
379853,183
379861,158
379869,113
379877,65
379885,27
379893,2
379901,-19
379909,-36
379917,-49
379925,-57
379933,-65
379941,-69
379949,-66
379957,-62
379965,-60
379973,-69
379981,-81
379989,-87
379997,-88
380005,-72
380013,-57
380021,-39
380029,-31
380037,-32
380045,-34
380053,-32
380061,-35
380069,-34
380077,-36
380085,-33
380093,-29
380101,-27
380109,-25
380117,-26
380125,-23
380133,-14
380141,-10
380149,-12
380157,-17
380165,-17
380173,-18
380181,-30
380189,-49
380197,-62
380205,-62
380213,-60
380221,-64
380229,-77
380237,-86
380245,-85
380253,-78
380261,-69
380269,-57
380277,-50
380285,-46
380293,-41
380301,-34
380309,-26
380317,-28
380325,-35
380333,-37
380341,-37
380349,-38
380357,-45
380365,-54
380373,-53
380381,-42
380389,-20
380397,4
380405,20
380413,24
380421,25
380429,27
380437,24
380445,6
380453,-20
380461,-10
380469,29
380477,-21
380485,-114
380493,58
380501,561
380509,930
380517,689
380525,31
380533,-415
380541,-361
380549,-118
380557,-37
380565,-79
380573,-73
380581,-45
380589,-34
380597,-39
380605,-43
380613,-41
380621,-38
380629,-42
380637,-41
380645,-34
380653,-21
380661,-10
380669,-5
380677,-4
380685,-7
380693,-1
380701,13
380709,29
380717,39
380725,40
380733,54
380741,77
380749,112
380757,138
380765,154
380773,161
380781,168
380789,175
380797,180
380805,173
380813,150
380821,116
380829,80
380837,45
380845,19
380853,-4
380861,-27
380869,-51
380877,-56
380885,-67
380893,-85
380901,-105
380909,-114
380917,-106
380925,-96
380933,-98
380941,-104
380949,-112
380957,-106
380965,-103
380973,-99
380981,-97
380989,-86
380997,-73
381005,-64
381013,-66
381021,-72
381029,-75
381037,-76
381045,-79
381053,-84
381061,-86
381069,-82
381077,-78
381085,-78
381093,-78
381101,-80
381109,-84
381117,-88
381125,-86
381133,-84
381141,-78
381149,-74
381157,-73
381165,-71
381173,-67
381181,-64
381189,-65
381197,-64
381205,-59
381213,-58
381221,-66
381229,-79
381237,-85
381245,-79
381253,-76
381261,-82
381269,-88
381277,-87
381285,-83
381293,-78
381301,-68
381309,-62
381317,-61
381325,-71
381333,-85
381341,-88
381349,-78
381357,-60
381365,-36
381373,-19
381381,-8
381389,-2
381397,-8
381405,-27
381413,-50
381421,-70
381429,-63
381437,-30
381445,-83
381453,-183
381461,-33
381469,449
381477,822
381485,618
381493,-14
381501,-470
381509,-442
381517,-202
381525,-107
381533,-146
381541,-157
381549,-142
381557,-132
381565,-123
381573,-111
381581,-105
381589,-101
381597,-98
381605,-99
381613,-104
381621,-113
381629,-119
381637,-119
381645,-110
381653,-103
381661,-97
381669,-96
381677,-90
381685,-84
381693,-71
381701,-65
381709,-59
381717,-46
381725,-28
381733,-18
381741,-16
381749,-13
381757,0
381765,10
381773,6
381781,-11
381789,-39
381797,-73
381805,-103
381813,-130
381821,-155
381829,-183
381837,-219
381845,-247
381853,-265
381861,-263
381869,-258
381877,-258
381885,-261
381893,-266
381901,-266
381909,-262
381917,-249
381925,-238
381933,-240
381941,-249
381949,-247
381957,-237
381965,-232
381973,-236
381981,-244
381989,-249
381997,-243
382005,-238
382013,-237
382021,-235
382029,-233
382037,-225
382045,-216
382053,-207
382061,-203
382069,-210
382077,-214
382085,-218
382093,-218
382101,-214
382109,-205
382117,-199
382125,-197
382133,-200
382141,-206
382149,-200
382157,-183
382165,-171
382173,-170
382181,-173
382189,-168
382197,-156
382205,-148
382213,-147
382221,-146
382229,-135
382237,-132
382245,-137
382253,-144
382261,-141
382269,-136
382277,-141
382285,-151
382293,-151
382301,-135
382309,-105
382317,-83
382325,-83
382333,-93
382341,-105
382349,-108
382357,-111
382365,-116
382373,-94
382381,-57
382389,-129
382397,-207
382405,32
382413,556
382421,806
382429,376
382437,-382
382445,-761
382453,-571
382461,-232
382469,-117
382477,-134
382485,-128
382493,-104
382501,-84
382509,-70
382517,-60
382525,-60
382533,-71
382541,-80
382549,-92
382557,-98
382565,-103
382573,-109
382581,-110
382589,-108
382597,-101
382605,-87
382613,-72
382621,-63
382629,-68
382637,-66
382645,-43
382653,-11
382661,8
382669,21
382677,44
382685,70
382693,85
382701,84
382709,76
382717,59
382725,25
382733,-25
382741,-83
382749,-135
382757,-181
382765,-218
382773,-242
382781,-247
382789,-245
382797,-244
382805,-239
382813,-234
382821,-226
382829,-220
382837,-213
382845,-203
382853,-189
382861,-174
382869,-163
382877,-151
382885,-138
382893,-127
382901,-120
382909,-117
382917,-116
382925,-115
382933,-117
382941,-125
382949,-134
382957,-137
382965,-135
382973,-132
382981,-133
382989,-135
382997,-128
383005,-111
383013,-95
383021,-88
383029,-93
383037,-95
383045,-89
383053,-85
383061,-86
383069,-91
383077,-92
383085,-89
383093,-84
383101,-77
383109,-74
383117,-70
383125,-64
383133,-59
383141,-55
383149,-59
383157,-63
383165,-59
383173,-46
383181,-30
383189,-23
383197,-22
383205,-22
383213,-19
383221,-21
383229,-24
383237,-23
383245,-9
383253,23
383261,56
383269,74
383277,71
383285,53
383293,37
383301,29
383309,24
383317,31
383325,66
383333,26
383341,-75
383349,63
383357,564
383365,984
383373,800
383381,133
383389,-376
383397,-365
383405,-102
383413,13
383421,-19
383429,-28
383437,-11
383445,-1
383453,8
383461,11
383469,14
383477,13
383485,15
383493,16
383501,19
383509,20
383517,26
383525,29
383533,27
383541,18
383549,11
383557,11
383565,13
383573,21
383581,35
383589,56
383597,71
383605,83
383613,92
383621,98
383629,94
383637,89
383645,82
383653,79
383661,77
383669,65
383677,47
383685,24
383693,-10
383701,-48
383709,-89
383717,-115
383725,-117
383733,-107
383741,-98
383749,-92
383757,-84
383765,-77
383773,-73
383781,-64
383789,-53
383797,-41
383805,-30
383813,-18
383821,-9
383829,3
383837,8
383845,17
383853,25
383861,27
383869,32
383877,47
383885,66
383893,80
383901,69
383909,47
383917,37
383925,46
383933,62
383941,70
383949,61
383957,37
383965,1
383973,-45
383981,-102
383989,-167
383997,-224
384005,-263
384013,-264
384021,-247
384029,-244
384037,-267
384045,-294
384053,-305
384061,-309
384069,-311
384077,-315
384085,-316
384093,-323
384101,-339
384109,-360
384117,-365
384125,-373
384133,-383
384141,-394
384149,-406
384157,-415
384165,-429
384173,-461
384181,-499
384189,-520
384197,-503
384205,-486
384213,-496
384221,-535
384229,-560
384237,-568
384245,-585
384253,-608
384261,-584
384269,-589
384277,-709
384285,-726
384293,-355
384301,172
384309,267
384317,-309
384325,-1086
384333,-1397
384341,-1117
384349,-649
384357,-339
384365,-249
384373,-327
384381,-455
384389,-528
384397,-558
384405,-584
384413,-673
384421,-883
384429,-1150
384437,-1363
384445,-1477
384453,-1554
384461,-1647
384469,-1714
384477,-1697
384485,-1624
384493,-1575
384501,-1583
384509,-1617
384517,-1633
384525,-1599
384533,-1519
384541,-1436
384549,-1364
384557,-1305
384565,-1276
384573,-1297
384581,-1314
384589,-1235
384597,-1048
384605,-852
384613,-739
384621,-682
384629,-626
384637,-575
384645,-568
384653,-605
384661,-646
384669,-664
384677,-673
384685,-693
384693,-726
384701,-733
384709,-676
384717,-605
384725,-626
384733,-782
384741,-966
384749,-1038
384757,-992
384765,-914
384773,-871
384781,-837
384789,-799
384797,-771
384805,-749
384813,-705
384821,-666
384829,-651
384837,-673
384845,-690
384853,-666
384861,-613
384869,-548
384877,-469
384885,-401
384893,-355
384901,-315
384909,-224
384917,-104
384925,-4
384933,34
384941,30
384949,29
384957,56
384965,101
384973,163
384981,260
384989,416
384997,605
385005,768
385013,865
385021,933
385029,1052
385037,1145
385045,1177
385053,1379
385061,1836
385069,2229
385077,2213
385085,1893
385093,1698
385101,1796
385109,1955
385117,1939
385125,1818
385133,1768
385141,1794
385149,1758
385157,1644
385165,1726
385173,2209
385181,2675
385189,2534
385197,1836
385205,1247
385213,1219
385221,1499
385229,1627
385237,1586
385245,1549
385253,1555
385261,1552
385269,1511
385277,1417
385285,1282
385293,1177
385301,1157
385309,1186
385317,1252
385325,1434
385333,1781
385341,2125
385349,2271
385357,2245
385365,2271
385373,2509
385381,2869
385389,3115
385397,3089
385405,2768
385413,2250
385421,1715
385429,1327
385437,1148
385445,1108
385453,1116
385461,1142
385469,1135
385477,1087
385485,993
385493,835
385501,664
385509,539
385517,449
385525,350
385533,193
385541,-9
385549,-180
385557,-230
385565,-183
385573,-109
385581,-69
385589,-88
385597,-172
385605,-296
385613,-422
385621,-518
385629,-572
385637,-605
385645,-636
385653,-669
385661,-699
385669,-716
385677,-710
385685,-690
385693,-671
385701,-669
385709,-681
385717,-690
385725,-690
385733,-682
385741,-676
385749,-673
385757,-668
385765,-654
385773,-635
385781,-625
385789,-623
385797,-612
385805,-589
385813,-572
385821,-581
385829,-604
385837,-613
385845,-603
385853,-584
385861,-581
385869,-587
385877,-595
385885,-592
385893,-579
385901,-559
385909,-540
385917,-518
385925,-514
385933,-518
385941,-522
385949,-507
385957,-477
385965,-426
385973,-369
385981,-314
385989,-295
385997,-342
386005,-436
386013,-499
386021,-460
386029,-291
386037,-118
386045,-135
386053,-198
386061,57
386069,579
386077,799
386085,353
386093,-400
386101,-820
386109,-759
386117,-592
386125,-565
386133,-582
386141,-557
386149,-534
386157,-527
386165,-514
386173,-499
386181,-496
386189,-498
386197,-500
386205,-488
386213,-464
386221,-437
386229,-415
386237,-394
386245,-374
386253,-354
386261,-333
386269,-304
386277,-263
386285,-227
386293,-207
386301,-196
386309,-183
386317,-165
386325,-143
386333,-127
386341,-113
386349,-120
386357,-145
386365,-186
386373,-224
386381,-258
386389,-300
386397,-350
386405,-403
386413,-451
386421,-489
386429,-510
386437,-510
386445,-504
386453,-489
386461,-465
386469,-433
386477,-404
386485,-392
386493,-393
386501,-388
386509,-378
386517,-376
386525,-382
386533,-383
386541,-377
386549,-372
386557,-372
386565,-374
386573,-364
386581,-343
386589,-316
386597,-282
386605,-253
386613,-239
386621,-244
386629,-261
386637,-295
386645,-358
386653,-430
386661,-480
386669,-466
386677,-391
386685,-273
386693,-152
386701,-44
386709,49
386717,123
386725,176
386733,191
386741,172
386749,123
386757,44
386765,-37
386773,-79
386781,-57
386789,-1
386797,52
386805,87
386813,129
386821,161
386829,167
386837,142
386845,114
386853,93
386861,83
386869,76
386877,82
386885,111
386893,161
386901,218
386909,275
386917,344
386925,413
386933,444
386941,409
386949,338
386957,328
386965,411
386973,430
386981,321
386989,376
386997,777
387005,1147
387013,974
387021,321
387029,-225
387037,-293
387045,-92
387053,8
387061,-18
387069,-48
387077,-79
387085,-129
387093,-162
387101,-176
387109,-168
387117,-149
387125,-142
387133,-153
387141,-158
387149,-159
387157,-160
387165,-179
387173,-200
387181,-206
387189,-206
387197,-201
387205,-188
387213,-165
387221,-156
387229,-162
387237,-180
387245,-196
387253,-202
387261,-203
387269,-199
387277,-195
387285,-193
387293,-191
387301,-193
387309,-212
387317,-246
387325,-290
387333,-328
387341,-357
387349,-374
387357,-376
387365,-369
387373,-365
387381,-367
387389,-374
387397,-375
387405,-365
387413,-356
387421,-354
387429,-354
387437,-353
387445,-355
387453,-373
387461,-403
387469,-443
387477,-477
387485,-487
387493,-487
387501,-487
387509,-516
387517,-562
387525,-598
387533,-612
387541,-615
387549,-627
387557,-629
387565,-587
387573,-489
387581,-378
387589,-293
387597,-247
387605,-214
387613,-164
387621,-105
387629,-52
387637,-7
387645,24
387653,80
387661,191
387669,371
387677,590
387685,758
387693,804
387701,742
387709,623
387717,475
387725,311
387733,153
387741,32
387749,-54
387757,-128
387765,-199
387773,-238
387781,-237
387789,-195
387797,-121
387805,-37
387813,49
387821,130
387829,194
387837,229
387845,235
387853,240
387861,238
387869,220
387877,165
387885,86
387893,3
387901,-66
387909,-179
387917,-268
387925,-47
387933,525
387941,959
387949,778
387957,139
387965,-331
387973,-302
387981,-32
387989,106
387997,122
388005,178
388013,262
388021,285
388029,234
388037,136
388045,41
388053,-35
388061,-95
388069,-164
388077,-226
388085,-268
388093,-272
388101,-241
388109,-186
388117,-145
388125,-145
388133,-178
388141,-207
388149,-199
388157,-153
388165,-83
388173,6
388181,108
388189,205
388197,273
388205,305
388213,303
388221,251
388229,143
388237,7
388245,-105
388253,-191
388261,-256
388269,-315
388277,-353
388285,-369
388293,-374
388301,-377
388309,-372
388317,-351
388325,-334
388333,-328
388341,-313
388349,-280
388357,-232
388365,-185
388373,-144
388381,-104
388389,-56
388397,-9
388405,35
388413,78
388421,120
388429,158
388437,202
388445,250
388453,302
388461,351
388469,401
388477,441
388485,476
388493,502
388501,517
388509,507
388517,475
388525,416
388533,349
388541,282
388549,224
388557,167
388565,106
388573,33
388581,-43
388589,-116
388597,-190
388605,-263
388613,-334
388621,-394
388629,-433
388637,-483
388645,-577
388653,-664
388661,-765
388669,-1136
388677,-1947
388685,-2897
388693,-3398
388701,-3170
388709,-2499
388717,-1825
388725,-1303
388733,-844
388741,-442
388749,-140
388757,94
388765,279
388773,408
388781,480
388789,517
388797,535
388805,539
388813,523
388821,499
388829,497
388837,526
388845,485
388853,356
388861,409
388869,818
388877,1231
388885,1119
388893,484
388901,-87
388909,-144
388917,124
388925,293
388933,280
388941,258
388949,267
388957,268
388965,268
388973,270
388981,267
388989,260
388997,247
389005,237
389013,234
389021,228
389029,220
389037,218
389045,223
389053,230
389061,227
389069,224
389077,226
389085,235
389093,240
389101,248
389109,259
389117,275
389125,286
389133,292
389141,292
389149,287
389157,277
389165,260
389173,243
389181,221
389189,200
389197,171
389205,135
389213,94
389221,59
389229,37
389237,24
389245,17
389253,18
389261,11
389269,4
389277,2
389285,17
389293,39
389301,71
389309,160
389317,303
389325,418
389333,502
389341,643
389349,868
389357,1114
389365,1260
389373,1236
389381,1079
389389,843
389397,566
389405,281
389413,1
389421,-287
389429,-513
389437,-635
389445,-697
389453,-747
389461,-786
389469,-820
389477,-852
389485,-886
389493,-934
389501,-983
389509,-1023
389517,-1033
389525,-1007
389533,-946
389541,-860
389549,-759
389557,-662
389565,-563
389573,-461
389581,-359
389589,-281
389597,-234
389605,-203
389613,-175
389621,-152
389629,-134
389637,-117
389645,-100
389653,-80
389661,-70
389669,-62
389677,-52
389685,-25
389693,6
389701,31
389709,37
389717,26
389725,7
389733,-13
389741,-30
389749,-28
389757,21
389765,60
389773,-16
389781,-47
389789,260
389797,767
389805,907
389813,404
389821,-298
389829,-571
389837,-349
389845,-74
389853,-8
389861,-27
389869,-16
389877,-5
389885,2
389893,14
389901,29
389909,34
389917,31
389925,21
389933,7
389941,-16
389949,-33
389957,-44
389965,-44
389973,-38
389981,-30
389989,-15
389997,2
390005,7
390013,14
390021,25
390029,42
390037,62
390045,81
390053,103
390061,126
390069,142
390077,151
390085,156
390093,158
390101,146
390109,119
390117,84
390125,46
390133,10
390141,-17
390149,-40
390157,-55
390165,-69
390173,-79
390181,-85
390189,-83
390197,-76
390205,-57
390213,-21
390221,33
390229,107
390237,210
390245,330
390253,439
390261,515
390269,546
390277,547
390285,533
390293,527
390301,533
390309,532
390317,502
390325,433
390333,322
390341,165
390349,-18
390357,-182
390365,-275
390373,-307
390381,-315
390389,-315
390397,-308
390405,-289
390413,-271
390421,-262
390429,-252
390437,-243
390445,-236
390453,-234
390461,-235
390469,-238
390477,-240
390485,-235
390493,-229
390501,-217
390509,-199
390517,-186
390525,-185
390533,-192
390541,-191
390549,-187
390557,-193
390565,-208
390573,-215
390581,-189
390589,-142
390597,-83
390605,-14
390613,63
390621,127
390629,155
390637,143
390645,110
390653,75
390661,46
390669,14
390677,1
390685,16
390693,-32
390701,-165
390709,-103
390717,326
390725,703
390733,405
390741,-561
390749,-1434
390757,-1612
390765,-1275
390773,-952
390781,-815
390789,-706
390797,-566
390805,-441
390813,-323
390821,-198
390829,-82
390837,3
390845,49
390853,71
390861,94
390869,120
390877,159
390885,224
390893,299
390901,354
390909,379
390917,412
390925,458
390933,491
390941,489
390949,468
390957,457
390965,446
390973,432
390981,412
390989,406
390997,404
391005,398
391013,387
391021,364
391029,328
391037,283
391045,235
391053,202
391061,174
391069,145
391077,110
391085,86
391093,80
391101,96
391109,107
391117,104
391125,98
391133,98
391141,99
391149,102
391157,109
391165,125
391173,138
391181,181
391189,247
391197,297
391205,336
391213,391
391221,615
391229,1037
391237,1107
391245,280
391253,-1073
391261,-1879
391269,-1540
391277,-528
391285,287
391293,509
391301,332
391309,37
391317,-204
391325,-182
391333,42
391341,202
391349,205
391357,134
391365,85
391373,66
391381,61
391389,70
391397,74
391405,75
391413,80
391421,71
391429,61
391437,56
391445,48
391453,42
391461,26
391469,21
391477,24
391485,30
391493,10
391501,-18
391509,-39
391517,-46
391525,-34
391533,-2
391541,33
391549,54
391557,61
391565,51
391573,32
391581,17
391589,3
391597,21
391605,55
391613,-5
391621,-76
391629,131
391637,605
391645,886
391653,597
391661,-18
391669,-371
391677,-261
391685,-26
391693,36
391701,-15
391709,-34
391717,-23
391725,-21
391733,-31
391741,-48
391749,-60
391757,-65
391765,-67
391773,-71
391781,-85
391789,-98
391797,-101
391805,-100
391813,-99
391821,-83
391829,-52
391837,-25
391845,-12
391853,1
391861,16
391869,36
391877,53
391885,78
391893,107
391901,133
391909,118
391917,71
391925,18
